scope,source_id,noise_seed,condition,family,band_id,n_records,achieved_snr_0,achieved_snr_0_min,achieved_snr_0_max,achieved_snr_0_n_defined,max_snr_abs_error_db,max_snr_abs_error_db_min,max_snr_abs_error_db_max,max_snr_abs_error_db_n_defined,max_scaled_noise_snr_abs_error_db,max_scaled_noise_snr_abs_error_db_min,max_scaled_noise_snr_abs_error_db_max,max_scaled_noise_snr_abs_error_db_n_defined,max_lead_rms_relative_error,max_lead_rms_relative_error_min,max_lead_rms_relative_error_max,max_lead_rms_relative_error_n_defined,max_scaled_lead_rms_relative_error,max_scaled_lead_rms_relative_error_min,max_scaled_lead_rms_relative_error_max,max_scaled_lead_rms_relative_error_n_defined,effective_cross_lead_correlation,effective_cross_lead_correlation_min,effective_cross_lead_correlation_max,effective_cross_lead_correlation_n_defined,active_lead_count,active_lead_count_min,active_lead_count_max,active_lead_count_n_defined,power_fraction_0_5,power_fraction_0_5_min,power_fraction_0_5_max,power_fraction_0_5_n_defined,power_fraction_5_15,power_fraction_5_15_min,power_fraction_5_15_max,power_fraction_5_15_n_defined,power_fraction_15_40,power_fraction_15_40_min,power_fraction_15_40_max,power_fraction_15_40_n_defined,power_fraction_40_50,power_fraction_40_50_min,power_fraction_40_50_max,power_fraction_40_50_n_defined,crop_mean_removed_rms,crop_mean_removed_rms_min,crop_mean_removed_rms_max,crop_mean_removed_rms_n_defined,crop_to_long_source_power_ratio,crop_to_long_source_power_ratio_min,crop_to_long_source_power_ratio_max,crop_to_long_source_power_ratio_n_defined,crop_demeaning_retained_power_fraction,crop_demeaning_retained_power_fraction_min,crop_demeaning_retained_power_fraction_max,crop_demeaning_retained_power_fraction_n_defined,source_fft_df_hz,source_fft_df_hz_min,source_fft_df_hz_max,source_fft_df_hz_n_defined,source_lowest_retained_hz,source_lowest_retained_hz_min,source_lowest_retained_hz_max,source_lowest_retained_hz_n_defined
source_seed_condition,standard,8128,electrode,standard,legacy_0p5_40,2158,-2.0337038990222916e-10,-1.863353236536758e-08,1.8147491475622117e-08,2158,1.4748874092454802e-07,9.55205248232005e-08,2.229017006527556e-07,2158,1.49481664378245e-07,1.3348261518331128e-07,1.6683840087239332e-07,2158,2.8281767069034793e-08,9.74739042761369e-09,1.0952940027377482e-07,2158,6.762049425941092e-09,3.747693365989642e-09,1.3777855832420788e-08,2158,0.197724302537776,0.17962727982283885,0.21489270424311083,2158,12.0,12.0,12.0,2158,0.1139543823645615,0.08620252410239064,0.14410835424175025,2158,0.2518159476907652,0.21506462786120986,0.2898340906236624,2158,0.6316322167564755,0.5929030726448123,0.6701021166956603,2158,0.0025974531881977,0.0003380591326029581,0.009860489649576183,2158,7.644180281722025e-18,2.482534153247273e-18,1.4776118912695144e-17,2158,1.0,1.0,1.0,2158,1.0,0.9999999999999998,1.0,2158,0.0999999999999963,0.1,0.1,2158,0.5,0.5,0.5,2158
overall,__overall__,,electrode,all,all,155376,-2.964405319218495e-11,-2.7364123203725336e-08,3.298125092794067e-08,155376,6.587009301687287e-08,1.5476910056411645e-08,2.30046278915097e-07,155376,6.596216675964219e-08,2.673055732316243e-08,1.6683840087239332e-07,155376,1.2427682377452655e-08,2.3711467624211875e-09,1.4745453047228282e-07,155376,5.512391510585629e-09,1.3243016700281153e-09,1.3866101932779676e-08,155376,0.23289821011532472,0.01100974282362381,0.4081935621916015,155376,11.5,6.0,12.0,155376,0.1673537490880709,5.130842081915257e-06,0.99589743607514,155376,0.27326883856975903,0.00017780854354934153,0.9965805479218006,155376,0.5572082291194091,2.406114273421826e-05,0.998609104987597,155376,0.002169183222758607,3.096150605624116e-06,0.013613495114313074,155376,0.0022481894022576944,6.148136713008272e-19,0.04611734433854607,155376,1.000038203383622,0.7879725591463159,1.2679546774878152,155376,0.9997710477613188,0.9854062243629461,1.0000000000000002,155376,0.07000000000019362,0.01,0.1,155376,2.045833333332834,0.05,15.0,155376
source_seed_condition,standard,8128,independent_rms,standard,legacy_0p5_40,2158,7.591374655364357e-11,-1.8934579972488137e-08,1.9041879160179294e-08,2158,1.4715294574501617e-07,9.227417052670717e-08,2.1669427496817661e-07,2158,1.4923894979703434e-07,1.3357287897974857e-07,1.663895474735e-07,2158,2.8281767069034793e-08,9.74739042761369e-09,1.0952940027377482e-07,2158,6.762049425941092e-09,3.747693365989642e-09,1.3777855832420788e-08,2158,0.02827880161098271,0.01937846620996385,0.037013739153042076,2158,12.0,12.0,12.0,2158,0.11373342028081986,0.09803320496244344,0.12841273559714575,2158,0.25242525366542923,0.23008823509297036,0.27415887059095495,2158,0.6312946850210088,0.6046867161282364,0.6571800525844901,2158,0.002546641032742086,0.000832602955282477,0.005841402425856094,2158,5.3594084876894726e-18,2.6459668429208405e-18,8.961913909027147e-18,2158,1.0,1.0,1.0,2158,1.0,0.9999999999999997,1.0,2158,0.0999999999999963,0.1,0.1,2158,0.5,0.5,0.5,2158
overall,__overall__,,independent_rms,all,all,155376,1.086916636310299e-11,-3.319651414309625e-08,2.967984501153332e-08,155376,6.580717511547902e-08,1.2913627500665825e-08,2.3123837067373643e-07,155376,6.595128661991431e-08,2.9904203557862274e-08,1.6810699676739205e-07,155376,1.2427682377452655e-08,2.3711467624211875e-09,1.4745453047228282e-07,155376,5.512391510585629e-09,1.3243016700281153e-09,1.3866101932779676e-08,155376,0.03557293042245969,0.011899106941520474,0.11034789882923719,155376,11.5,6.0,12.0,155376,0.16736279012097166,1.2473054690538775e-05,0.9941686377247748,155376,0.2732717783333567,0.00035802984542726205,0.9953865131810948,155376,0.5572075365339921,6.33034710786086e-05,0.9979266727201064,155376,0.002157895011674744,1.0233720599320428e-05,0.008481900472954215,155376,0.001855140987117384,2.11525895502192e-18,0.029191320932157698,155376,0.9998889847997949,0.8643244386565285,1.1589344665748353,155376,0.9997721314454044,0.991292243025569,1.0000000000000002,155376,0.07000000000019362,0.01,0.1,155376,2.045833333332834,0.05,15.0,155376
source_seed_condition,limb_only,8128,electrode,limb_only,legacy_0p5_40,2158,-2.022036001564378e-10,-2.101173652335941e-08,2.1320553130249556e-08,2158,5.841125694712535e-08,2.575400870341582e-08,9.319543536889796e-08,2158,5.841241426253866e-08,3.64567558364115e-08,8.133103257534913e-08,2158,1.4856640262677836e-08,5.312018239819389e-09,5.13204571794351e-08,2158,5.355028889489662e-09,2.2159499086080153e-09,1.106603015141095e-08,2158,0.3683129738425466,0.35248861949989524,0.40065190337733875,2158,12.0,12.0,12.0,2158,0.11400573915151732,0.08212407504903191,0.15283331432045208,2158,0.2516349228132298,0.20569336524788126,0.3025945126819786,2158,0.6317278537653125,0.5777653260568372,0.6775263224930725,2158,0.0026314842699389648,0.00012161789471053474,0.012756833298502452,2158,6.170138739683679e-18,1.3167575825743384e-18,1.3236664760052858e-17,2158,1.0,1.0,1.0,2158,1.0,0.9999999999999996,1.0,2158,0.0999999999999963,0.1,0.1,2158,0.5,0.5,0.5,2158
source_seed_condition,limb_only,8128,independent_rms,limb_only,legacy_0p5_40,2158,9.395984393110616e-11,-2.4298532437447192e-08,1.97138447154071e-08,2158,5.8357663208472305e-08,2.5229457634168284e-08,8.876703994076252e-08,2158,5.8345490278729533e-08,4.0982424565072506e-08,7.655945566398259e-08,2158,1.4856640262677836e-08,5.312018239819389e-09,5.13204571794351e-08,2158,5.355028889489662e-09,2.2159499086080153e-09,1.106603015141095e-08,2158,0.028278801604531858,0.01937846557894875,0.03701373940403691,2158,12.0,12.0,12.0,2158,0.1137212136136445,0.09614850812296291,0.13236738164756476,2158,0.25252054153742365,0.2255841036148059,0.2797294598115462,2158,0.6312178566342859,0.6011083836853766,0.6613718196364521,2158,0.0025403882146455567,0.0005690443253526256,0.007123726963315478,2158,5.3594084876894726e-18,2.6459668429208405e-18,8.961913909027147e-18,2158,1.0,1.0,1.0,2158,1.0,0.9999999999999997,1.0,2158,0.0999999999999963,0.1,0.1,2158,0.5,0.5,0.5,2158
source_seed_condition,precordial_only,8128,electrode,precordial_only,legacy_0p5_40,2158,5.163511741594627e-11,-2.7315973368689747e-08,2.7749750350280632e-08,2158,5.8354248459605564e-08,2.062764359322955e-08,1.0381792137081902e-07,2158,5.836176951248296e-08,3.568754003424601e-08,8.659375794195512e-08,2158,8.275802942256441e-09,2.8578933225214804e-09,2.0762228685151995e-08,2158,4.724232176007398e-09,1.4206865789870638e-09,1.0861079466763156e-08,2158,0.02853998951774361,0.013330253934259342,0.04783805646949756,2158,6.0,6.0,6.0,2158,0.11383950715518436,0.09342075151277544,0.13879381196001436,2158,0.25249220987157683,0.2187518428003383,0.2829345693126438,2158,0.6311360864645367,0.599538558479888,0.6628506095761335,2158,0.0025321965087021,0.00038673009402075034,0.00761868915463448,2158,3.715505349489304e-18,1.076401158743041e-18,7.454219611166888e-18,2158,1.0,1.0,1.0,2158,1.0,1.0,1.0000000000000002,2158,0.0999999999999963,0.1,0.1,2158,0.5,0.5,0.5,2158
source_seed_condition,precordial_only,8128,independent_rms,precordial_only,legacy_0p5_40,2158,3.2745361553501744e-10,-2.6487407292891544e-08,2.967984501153332e-08,2158,5.834368378967583e-08,1.4939571357786008e-08,1.016433621714441e-07,2158,5.825424259956101e-08,3.1730051475165055e-08,8.81433432908807e-08,2158,8.275802942256441e-09,2.8578933225214804e-09,2.0762228685151995e-08,2158,4.724232176007398e-09,1.4206865789870638e-09,1.0861079466763156e-08,2158,0.028371082726538863,0.013444800369298198,0.050906546443853354,2158,6.0,6.0,6.0,2158,0.11375492301522111,0.09391664333032608,0.13304985934603109,2158,0.2522399808310942,0.22082752045209617,0.2834199683431077,2158,0.6314461281493207,0.5931540352589136,0.6607289836612534,2158,0.0025589680043631856,0.0003998480730602656,0.007132208803634972,2158,5.3594084876894726e-18,2.6459668429208405e-18,8.961913909027147e-18,2158,1.0,1.0,1.0,2158,1.0,0.9999999999999997,1.0,2158,0.0999999999999963,0.1,0.1,2158,0.5,0.5,0.5,2158
source_seed_condition,random_00,8128,electrode,randomized,legacy_0p5_40,2158,4.17738656015121e-11,-1.8871430023738564e-08,1.6988366008204054e-08,2158,5.834787755250846e-08,2.4024494393870555e-08,8.863774603184993e-08,2158,5.8284802177495825e-08,4.1317676391372515e-08,7.501097698536796e-08,2158,1.088023080120602e-08,3.903147181701509e-09,2.9905242529876124e-08,2158,5.4887780002991035e-09,2.331454316331021e-09,1.1489721459412224e-08,2158,0.25042586229010094,0.23300542320276038,0.2690425510907809,2158,12.0,12.0,12.0,2158,0.11393281780711949,0.08945044114750757,0.14050972074926987,2158,0.25179683688651117,0.21784593062048993,0.28990460190905115,2158,0.6316847348805971,0.5936607401447673,0.6663168062202991,2158,0.0025856104257719384,0.00041486237966309496,0.009487360501780631,2158,7.664346774009478e-18,3.1086244689504384e-18,1.3545934204581304e-17,2158,1.0,1.0,1.0,2158,1.0,0.9999999999999997,1.0,2158,0.0999999999999963,0.1,0.1,2158,0.5,0.5,0.5,2158
source_seed_condition,random_00,8128,independent_rms,randomized,legacy_0p5_40,2158,8.541809034544632e-11,-1.8764639435302262e-08,1.77738763008357e-08,2158,5.833326943838737e-08,2.7801714708175496e-08,8.678566842945656e-08,2158,5.8261294814412645e-08,4.2924199306071387e-08,7.682291247590456e-08,2158,1.088023080120602e-08,3.903147181701509e-09,2.9905242529876124e-08,2158,5.4887780002991035e-09,2.331454316331021e-09,1.1489721459412224e-08,2158,0.028278801615348584,0.019378466112227363,0.03701373907144328,2158,12.0,12.0,12.0,2158,0.11373716235855434,0.09796361921839616,0.12861958015661748,2158,0.25242906831927975,0.2297543855763399,0.2746658808811444,2158,0.6312866839050525,0.6048237877717311,0.6574191069548586,2158,0.0025470854171129307,0.0008297441798298427,0.005761549632419698,2158,5.3594084876894726e-18,2.6459668429208405e-18,8.961913909027147e-18,2158,1.0,1.0,1.0,2158,1.0,0.9999999999999997,1.0,2158,0.0999999999999963,0.1,0.1,2158,0.5,0.5,0.5,2158
source_seed_condition,random_01,8128,electrode,randomized,legacy_0p5_40,2158,6.14442570774937e-11,-1.9425265951917482e-08,1.8547888916990675e-08,2158,5.8303016510019794e-08,3.03644043242457e-08,8.686683017344876e-08,2158,5.842710162291816e-08,4.2333404337568936e-08,7.466653073606722e-08,2158,1.0923722305519712e-08,4.657675908929553e-09,3.3762039338365824e-08,2158,5.436383259538067e-09,2.351966379223672e-09,1.055787786133648e-08,2158,0.26395263171838523,0.24486846102544343,0.29016573814202046,2158,12.0,12.0,12.0,2158,0.11387946415895851,0.09024633241034007,0.1382524330075285,2158,0.2518671758354151,0.217621092522905,0.28639096078378923,2158,0.6317115498099561,0.5853693562092096,0.6664988645730624,2158,0.0025418101956706934,0.00037295263799751643,0.00797548910302486,2158,7.633596658372755e-18,2.7555010819726128e-18,1.3990572258058766e-17,2158,1.0,1.0,1.0,2158,1.0,0.9999999999999998,1.0000000000000002,2158,0.0999999999999963,0.1,0.1,2158,0.5,0.5,0.5,2158
source_seed_condition,random_01,8128,independent_rms,randomized,legacy_0p5_40,2158,1.9454412819131797e-10,-1.826670171336857e-08,1.6713245311718813e-08,2158,5.839151109455622e-08,2.8593769130225155e-08,9.34730657320415e-08,2158,5.846297811427471e-08,3.993265451640582e-08,7.688280234674494e-08,2158,1.0923722305519712e-08,4.657675908929553e-09,3.3762039338365824e-08,2158,5.436383259538067e-09,2.351966379223672e-09,1.055787786133648e-08,2158,0.02827880160775716,0.01937846619969372,0.0370137394824176,2158,12.0,12.0,12.0,2158,0.1137422482410067,0.0984914826363183,0.1284082720167308,2158,0.25243259468989776,0.23011764486731118,0.27469199462097466,2158,0.6312796722792695,0.6045850788697607,0.6571090031798238,2158,0.002545484789825077,0.0008214148141372915,0.0057945203853178116,2158,5.3594084876894726e-18,2.6459668429208405e-18,8.961913909027147e-18,2158,1.0,1.0,1.0,2158,1.0,0.9999999999999997,1.0,2158,0.0999999999999963,0.1,0.1,2158,0.5,0.5,0.5,2158
source_seed_condition,random_02,8128,electrode,randomized,legacy_0p5_40,2158,-3.93537444539977e-11,-2.0968135903239674e-08,1.9396890529455013e-08,2158,5.8146420545526406e-08,2.4970209011598854e-08,8.84725448457857e-08,2158,5.8199802014476046e-08,4.0616196628207035e-08,7.83220777123006e-08,2158,1.0966630646833374e-08,4.472876612345427e-09,4.336352473165546e-08,2158,5.499201253987386e-09,1.5739479329227093e-09,1.2631167286114221e-08,2158,0.295503691518405,0.27258776168674836,0.3241020400057386,2158,12.0,12.0,12.0,2158,0.1139033266524501,0.08369030822618834,0.14099264447078094,2158,0.25211089297818345,0.21698607967746064,0.28982728874063873,2158,0.6313730472697513,0.5848155903773324,0.6719306517598921,2158,0.002612733099616278,0.0003648662313146901,0.01093122469745986,2158,7.607294542698287e-18,2.7525173224813926e-18,1.504942699272603e-17,2158,1.0,1.0,1.0,2158,1.0,1.0,1.0000000000000002,2158,0.0999999999999963,0.1,0.1,2158,0.5,0.5,0.5,2158
source_seed_condition,random_02,8128,independent_rms,randomized,legacy_0p5_40,2158,1.0064159704254877e-11,-1.778034411792147e-08,2.1760856370346713e-08,2158,5.852301139670806e-08,3.189486363908145e-08,8.733220546730536e-08,2158,5.8461747717993506e-08,4.0895587360978425e-08,7.522416822780542e-08,2158,1.0966630646833374e-08,4.472876612345427e-09,4.336352473165546e-08,2158,5.499201253987386e-09,1.5739479329227093e-09,1.2631167286114221e-08,2158,0.028278801609404946,0.019378466284238272,0.03701373922619785,2158,12.0,12.0,12.0,2158,0.11374102167150241,0.09825297423957097,0.12838751933748707,2158,0.25242348946874976,0.22995465249862254,0.2740210042494612,2158,0.6312886245899029,0.6045453626182186,0.6572805489388726,2158,0.002546864269843655,0.0008220471970473455,0.0058031118098953215,2158,5.3594084876894726e-18,2.6459668429208405e-18,8.961913909027147e-18,2158,1.0,1.0,1.0,2158,1.0,0.9999999999999997,1.0,2158,0.0999999999999963,0.1,0.1,2158,0.5,0.5,0.5,2158
source_seed_condition,random_03,8128,electrode,randomized,legacy_0p5_40,2158,-1.2277874060936838e-10,-1.9586143257393927e-08,1.7502528053434177e-08,2158,5.837963835512576e-08,3.130188019895286e-08,9.306289072696927e-08,2158,5.837114571819532e-08,4.30933901895969e-08,7.442893590337007e-08,2158,1.0777770237774551e-08,3.204236527237123e-09,2.779912901668171e-08,2158,5.504338226054024e-09,2.1761430066012946e-09,1.0818258352300452e-08,2158,0.29262083658512095,0.2699604238510628,0.3180898173508241,2158,12.0,12.0,12.0,2158,0.11401888114877493,0.08620671782616203,0.15070487452648607,2158,0.2518344902955531,0.2135287646537935,0.29331753307918007,2158,0.6315455485129635,0.591510582420765,0.6686575303567207,2158,0.0026010800427070132,0.0003392226587601796,0.011266724066375258,2158,7.651471210111099e-18,3.1218134313116656e-18,1.5865963625839536e-17,2158,1.0,1.0,1.0,2158,1.0,0.9999999999999998,1.0,2158,0.0999999999999963,0.1,0.1,2158,0.5,0.5,0.5,2158
source_seed_condition,random_03,8128,independent_rms,randomized,legacy_0p5_40,2158,-1.6530068602736102e-10,-1.861915038546972e-08,1.917769793295343e-08,2158,5.8610082246877546e-08,2.6988436374608682e-08,8.857658428951254e-08,2158,5.8362756706745034e-08,4.170015088789114e-08,7.58368443598556e-08,2158,1.0777770237774551e-08,3.204236527237123e-09,2.779912901668171e-08,2158,5.504338226054024e-09,2.1761430066012946e-09,1.0818258352300452e-08,2158,0.02827880161258951,0.019378465985596255,0.03701373893935913,2158,12.0,12.0,12.0,2158,0.11373637496020592,0.09826742083007928,0.12864488420104922,2158,0.2524273570268839,0.22955870857838984,0.27458537004567285,2158,0.6312905862875432,0.6048088985262142,0.6571114596828732,2158,0.0025456817253647376,0.0008159858595727185,0.005793261697333423,2158,5.3594084876894726e-18,2.6459668429208405e-18,8.961913909027147e-18,2158,1.0,1.0,1.0,2158,1.0,0.9999999999999997,1.0,2158,0.0999999999999963,0.1,0.1,2158,0.5,0.5,0.5,2158
source_seed_condition,random_04,8128,electrode,randomized,legacy_0p5_40,2158,-5.8136433225771634e-11,-1.902959949765654e-08,1.810703890289652e-08,2158,5.815945565944763e-08,1.7265467278093638e-08,9.119405852686668e-08,2158,5.814368428677311e-08,4.250295226881917e-08,7.34618836872869e-08,2158,1.0930598657078531e-08,3.6560578666230936e-09,4.0355028962320294e-08,2158,5.545539465296666e-09,2.60174690724912e-09,1.1824662522196849e-08,2158,0.2563941219016972,0.2390942722884392,0.2818346731589949,2158,12.0,12.0,12.0,2158,0.11392578847046615,0.08889975035772851,0.1430949580230139,2158,0.2517915611743707,0.2113897115193638,0.2877831812548102,2158,0.6317037457012668,0.5871948156475334,0.6778089177011435,2158,0.002578904653895827,0.0004212264367843916,0.012124270345822403,2158,7.583161483693961e-18,2.9036099814798758e-18,1.5476365605261775e-17,2158,1.0,1.0,1.0,2158,1.0,0.9999999999999998,1.0,2158,0.0999999999999963,0.1,0.1,2158,0.5,0.5,0.5,2158
source_seed_condition,random_04,8128,independent_rms,randomized,legacy_0p5_40,2158,1.2778076623394554e-11,-2.0731697272217698e-08,2.2025236387244206e-08,2158,5.8600318699888836e-08,2.4424462452543594e-08,8.903048964725713e-08,2158,5.8352988456279505e-08,4.1926986327212035e-08,7.560417714103096e-08,2158,1.0930598657078531e-08,3.6560578666230936e-09,4.0355028962320294e-08,2158,5.545539465296666e-09,2.60174690724912e-09,1.1824662522196849e-08,2158,0.0282788016039001,0.01937846611338098,0.037013739294877696,2158,12.0,12.0,12.0,2158,0.11373621258973514,0.09855279070631204,0.12839523404135875,2158,0.252433568520595,0.22986085780543014,0.27412229373402536,2158,0.6312848079496604,0.6046057749178576,0.6573137290871751,2158,0.002545410940009599,0.0008155450751570121,0.005706266603263575,2158,5.3594084876894726e-18,2.6459668429208405e-18,8.961913909027147e-18,2158,1.0,1.0,1.0,2158,1.0,0.9999999999999997,1.0,2158,0.0999999999999963,0.1,0.1,2158,0.5,0.5,0.5,2158
source_seed_condition,band_0p05_5,8128,electrode,standard,band_0p05_5,2158,-2.430678694720841e-10,-1.876572767885297e-08,1.683898204094206e-08,2158,5.817177006802811e-08,2.6426006272117775e-08,8.76931931514946e-08,2158,5.819794759177477e-08,4.114744278638227e-08,7.323680506488017e-08,2158,1.087349324990429e-08,4.559284695244019e-09,2.6791553212135738e-08,2158,5.436204726964565e-09,2.24544291967041e-09,1.1264145160345553e-08,2158,0.2275726981118069,0.18487555048331739,0.2870721862115372,2158,12.0,12.0,12.0,2158,0.9836066399572088,0.949553403387759,0.995466476694098,2158,0.015730567074994754,0.004308204832282451,0.048554166552745574,2158,0.000556474456599906,4.9566722942655365e-05,0.003026436004993504,2158,0.00010631851119737432,7.792204311150886e-06,0.0005813328028392815,2158,0.019415782480677636,0.006065916535104674,0.041953668907887785,2158,1.0006319677375133,0.8140013061349124,1.2149993401325132,2158,0.9972877463571564,0.9875751437374745,0.9997643428536158,2158,0.010000000000000266,0.01,0.01,2158,0.04999999999999815,0.05,0.05,2158
source_seed_condition,band_0p05_5,8128,independent_rms,standard,band_0p05_5,2158,3.9027089681533603e-11,-2.513568488463967e-08,1.8609677234818284e-08,2158,5.844495147796911e-08,3.0187209176801844e-08,8.536180473583954e-08,2158,5.8356700750678894e-08,4.223930538671539e-08,7.580583627486703e-08,2158,1.087349324990429e-08,4.559284695244019e-09,2.6791553212135738e-08,2158,5.436204726964565e-09,2.24544291967041e-09,1.1264145160345553e-08,2158,0.08026231501383056,0.05363782604965468,0.10906215031980654,2158,12.0,12.0,12.0,2158,0.9836024144414715,0.9692017512801295,0.993798528646322,2158,0.01574164822316825,0.005745927532254584,0.029610667481612316,2158,0.0005507245266148261,7.637506435514609e-05,0.0014801407297979094,2158,0.0001052128087454698,1.2545527647250698e-05,0.00028356647531594927,2158,0.016102073038486556,0.006728617407175954,0.02613989633997102,2158,0.9988849216104075,0.8931569081927784,1.1300869781219127,2158,0.9972709847786948,0.9930488445527842,0.9995289901720192,2158,0.010000000000000266,0.01,0.01,2158,0.04999999999999815,0.05,0.05,2158
source_seed_condition,band_5_15,8128,electrode,standard,band_5_15,2158,-5.630723104060913e-11,-2.2382610473912126e-08,1.7488631130369657e-08,2158,5.823948095404576e-08,2.5653918100942974e-08,9.050996752080209e-08,2158,5.837035453890148e-08,4.2828624202684296e-08,7.695902226600992e-08,2158,1.0876695738800956e-08,3.941007858441282e-09,3.784558752394145e-08,2158,5.467159030210561e-09,2.3644263108618413e-09,1.1217259391809756e-08,2158,0.21422184408394576,0.18581174284584193,0.2671260851905159,2158,12.0,12.0,12.0,2158,0.002247281588043998,0.0004414630600532919,0.008298717011998594,2158,0.989547960502272,0.973579333103786,0.9962068681256361,2158,0.00808837673001119,0.002473629820357457,0.023704500164268078,2158,0.00011638117967407146,9.478348185862917e-06,0.0005745920724337757,2158,0.0013977251527336487,0.00033297028083734245,0.003413504160325735,2158,1.0007625540070992,0.8757356210712237,1.1596544232874493,2158,0.9999930234896525,0.9999631669690235,0.9999996522237999,2158,0.010000000000000266,0.01,0.01,2158,5.0,5.0,5.0,2158
source_seed_condition,band_5_15,8128,independent_rms,standard,band_5_15,2158,-5.469548967174342e-11,-1.8837599969573804e-08,1.9440975723718844e-08,2158,5.836955711684106e-08,2.5700614969537128e-08,8.60007869363244e-08,2158,5.8353659734779285e-08,4.003154074894155e-08,7.50681330430325e-08,2158,1.0876695738800956e-08,3.941007858441282e-09,3.784558752394145e-08,2158,5.467159030210561e-09,2.3644263108618413e-09,1.1217259391809756e-08,2158,0.05611146245121882,0.039537097255602525,0.07385130293253576,2158,12.0,12.0,12.0,2158,0.0022916969836255926,0.0007750520441735053,0.00535039899682293,2158,0.9894032711690046,0.9792796708892928,0.9951604959235999,2158,0.008187480070714515,0.0032783431968273517,0.01681111518627002,2158,0.00011755177665613282,1.8585611239573295e-05,0.00035857756636200185,2158,0.001159742478880116,0.0005300216863854813,0.0020257014871939297,2158,0.9986920805891049,0.912837020386741,1.0898874794843836,2158,0.9999929853167824,0.999980125351877,0.9999985822893417,2158,0.010000000000000266,0.01,0.01,2158,5.0,5.0,5.0,2158
source_seed_condition,band_15_40,8128,electrode,standard,band_15_40,2158,-1.502919190905632e-10,-2.0312112121409143e-08,1.913073904284926e-08,2158,5.870487056329707e-08,3.266251624722827e-08,8.688440544801779e-08,2158,5.8491209488469125e-08,4.081477378292675e-08,7.34672127578051e-08,2158,1.0826088065527442e-08,3.815702046095941e-09,3.1489302705705456e-08,2158,5.472311345859745e-09,2.2776463493551837e-09,1.2383357851359898e-08,2158,0.20170435815931873,0.18026936629662846,0.2270869467456749,2158,12.0,12.0,12.0,2158,0.00010562587332285605,5.130842081915257e-06,0.0005486388897856676,2158,0.0010460013678701505,0.00021024927349507687,0.0037369812336926138,2158,0.9955306879060338,0.9884091801256975,0.9982438688936781,2158,0.0033176848527738255,0.0008557987406860561,0.010530433456117757,2158,0.0008487331830733741,0.00015437372838427555,0.002031930620988199,2158,0.9998150763372095,0.9170236579009338,1.096203370234995,2158,0.999998972433505,0.9999945928999592,0.9999999709959996,2158,0.010000000000000266,0.01,0.01,2158,15.0,15.0,15.0,2158
source_seed_condition,band_15_40,8128,independent_rms,standard,band_15_40,2158,-2.053535684195556e-10,-1.8067189592160114e-08,1.8439755985644125e-08,2158,5.833243346823112e-08,2.544020105688105e-08,8.927347749931869e-08,2158,5.816499278925903e-08,3.894758471290061e-08,7.725337525243958e-08,2158,1.0826088065527442e-08,3.815702046095941e-09,3.1489302705705456e-08,2158,5.472311345859745e-09,2.2776463493551837e-09,1.2383357851359898e-08,2158,0.035609865849766685,0.025388410014098296,0.04851512011105283,2158,12.0,12.0,12.0,2158,0.00010662876112065117,1.2473054690538775e-05,0.00031944935599525305,2158,0.0010618421060748686,0.0003823402034903262,0.0023700310602250167,2158,0.9955188929525409,0.9910960211246047,0.9976866018439586,2158,0.0033126361802653134,0.0013792070186625573,0.007218897227967739,2158,0.0007041910758302443,0.0002359661337031814,0.0012763083276196433,2158,1.000311243280335,0.9426156903261552,1.0510741407630644,2158,0.999998965164737,0.9999966899947395,0.9999998854154922,2158,0.010000000000000266,0.01,0.01,2158,15.0,15.0,15.0,2158
source_seed_condition,band_0p5_40,8128,electrode,standard,band_0p5_40,2158,-2.845848400547754e-10,-2.0954211978882908e-08,1.8368037023605542e-08,2158,5.8255401465788176e-08,2.5143885196143856e-08,9.613674123443161e-08,2158,5.8197866736258885e-08,4.132785669241912e-08,7.586896622058248e-08,2158,1.0829327027981893e-08,4.2861015513410455e-09,2.8474069752892077e-08,2158,5.511855049934644e-09,1.922674032865627e-09,1.1011152251579276e-08,2158,0.19763652311459892,0.18104725627680843,0.21809828653038704,2158,12.0,12.0,12.0,2158,0.11275054248644943,0.08903449569292435,0.13611246300494403,2158,0.2531280734991511,0.21907289740869051,0.28824124028152015,2158,0.6319788365683969,0.5865743715131989,0.6704208047380427,2158,0.002142547446002465,0.0005967968147775647,0.006465584465241102,2158,0.0052782979335483995,0.0016420951691410398,0.012114211538453662,2158,1.0001941218292008,0.9358842231363024,1.0759380617873546,2158,0.9999749880114541,0.9998824841216802,0.9999978161735252,2158,0.010000000000000266,0.01,0.01,2158,0.5,0.5,0.5,2158
source_seed_condition,band_0p5_40,8128,independent_rms,standard,band_0p5_40,2158,8.315912879351114e-11,-1.7059880599857636e-08,2.1312406491852097e-08,2158,5.840567657808855e-08,2.612690153114272e-08,9.724877614303296e-08,2158,5.839606393746993e-08,4.2908954611675654e-08,7.511682120764362e-08,2158,1.0829327027981893e-08,4.2861015513410455e-09,2.8474069752892077e-08,2158,5.511855049934644e-09,1.922674032865627e-09,1.1011152251579276e-08,2158,0.028337911684674314,0.02034771243200211,0.038083422524805295,2158,12.0,12.0,12.0,2158,0.11270739612473729,0.09797060340119546,0.12849108447611307,2158,0.2527311866961872,0.23185431697214312,0.2776055965969552,2158,0.6324201393650138,0.6025185100985109,0.6606469635369028,2158,0.0021412778140627383,0.0009112853769591061,0.004550780307605946,2158,0.004402373410918136,0.0018288221265635601,0.008072203447347279,2158,0.9997003015450976,0.9567421593946045,1.04113946944437,2158,0.9999744313882003,0.9999170136997263,0.9999957265454633,2158,0.010000000000000266,0.01,0.01,2158,0.5,0.5,0.5,2158
source_seed_condition,standard,101,electrode,standard,legacy_0p5_40,2158,4.3947667973123376e-11,-1.7627648166771355e-08,1.853645006463126e-08,2158,1.476828916700749e-07,9.344957963008937e-08,2.155494378541789e-07,2158,1.4930653760983936e-07,1.3369610130098408e-07,1.657108086305925e-07,2158,2.824074213596991e-08,1.0614935426323892e-08,9.726481474266703e-08,2158,6.7738513674910796e-09,3.553052546938059e-09,1.3132539539637404e-08,2158,0.19763742566067377,0.1831532986613164,0.22041662545402335,2158,12.0,12.0,12.0,2158,0.11355371869805428,0.08976559385677813,0.13900410122320092,2158,0.2523925697642562,0.22350689817833366,0.287344736191674,2158,0.6315195562971653,0.5946416050255023,0.6709780353183928,2158,0.002534155240523574,0.00036232899089450054,0.010115979945219053,2158,7.601038816075756e-18,2.979040983896727e-18,1.387260579954403e-17,2158,1.0,1.0,1.0,2158,1.0,1.0,1.0,2158,0.0999999999999963,0.1,0.1,2158,0.5,0.5,0.5,2158
source_seed_condition,standard,101,independent_rms,standard,legacy_0p5_40,2158,1.6739849378092657e-10,-2.167091606694566e-08,1.6927385796767197e-08,2158,1.472463921452581e-07,9.724445249048586e-08,2.1732073207658686e-07,2158,1.4918215027509548e-07,1.3330037162972985e-07,1.6581740780452492e-07,2158,2.824074213596991e-08,1.0614935426323892e-08,9.726481474266703e-08,2158,6.7738513674910796e-09,3.553052546938059e-09,1.3132539539637404e-08,2158,0.028385183894595517,0.02039396194453007,0.037388442749016815,2158,12.0,12.0,12.0,2158,0.11365809378790143,0.09926275095656772,0.12895918578083146,2158,0.2524823674880541,0.2289880363768595,0.2832278291559713,2158,0.6313257912012784,0.6049206900189711,0.653206855532189,2158,0.002533747522764965,0.0006880441437792135,0.006306165452668049,2158,5.382900601836373e-18,2.11525895502192e-18,9.019494489765868e-18,2158,1.0,1.0,1.0,2158,1.0,1.0,1.0,2158,0.0999999999999963,0.1,0.1,2158,0.5,0.5,0.5,2158
source_seed_condition,limb_only,101,electrode,limb_only,legacy_0p5_40,2158,6.177626825452668e-11,-2.450856488949763e-08,2.492378486937376e-08,2158,5.889365399600999e-08,2.2695274992656778e-08,9.246611476498856e-08,2158,5.858708394584854e-08,3.768489520439289e-08,8.033628517978286e-08,2158,1.4717307936830211e-08,5.430609113118693e-09,4.6668085776570535e-08,2158,5.336363126343076e-09,1.925551636281366e-09,1.1500482945646214e-08,2158,0.3681662207545915,0.3522773011760211,0.3982035672150127,2158,12.0,12.0,12.0,2158,0.11353404861220927,0.08382268245762559,0.14839045036829945,2158,0.2525377289722712,0.20451606273727402,0.3003316946977422,2158,0.6313960335001654,0.5797842711455371,0.6797905848001012,2158,0.002532188915353683,0.00015730041501627647,0.013287432810288524,2158,6.17966231882409e-18,1.6958936828758671e-18,1.3364552241799601e-17,2158,1.0,1.0,1.0,2158,1.0,0.9999999999999999,1.0,2158,0.0999999999999963,0.1,0.1,2158,0.5,0.5,0.5,2158
source_seed_condition,limb_only,101,independent_rms,limb_only,legacy_0p5_40,2158,3.956944048846476e-11,-2.34182798562296e-08,2.4821373293012328e-08,2158,5.8099890186103034e-08,1.7405382024549e-08,8.962235220622006e-08,2158,5.812059702220465e-08,3.764422729091166e-08,7.927820178110778e-08,2158,1.4717307936830211e-08,5.430609113118693e-09,4.6668085776570535e-08,2158,5.336363126343076e-09,1.925551636281366e-09,1.1500482945646214e-08,2158,0.028385183886669947,0.020393961652844468,0.03738844321594285,2158,12.0,12.0,12.0,2158,0.11361286693560847,0.09567370395731514,0.13411872672805708,2158,0.2524604137840607,0.2275035929971156,0.28311528305459616,2158,0.6313901198152188,0.597762033199821,0.6578543099829198,2158,0.0025365994651111077,0.0004913365638632605,0.007686457464916456,2158,5.382900601836373e-18,2.11525895502192e-18,9.019494489765868e-18,2158,1.0,1.0,1.0,2158,1.0,1.0,1.0,2158,0.0999999999999963,0.1,0.1,2158,0.5,0.5,0.5,2158
source_seed_condition,precordial_only,101,electrode,precordial_only,legacy_0p5_40,2158,-2.8273065213067753e-10,-2.7364123203725336e-08,2.3875817430224196e-08,2158,5.814653136533407e-08,1.9484534874436577e-08,1.0003215678011657e-07,2158,5.8345148101202357e-08,3.2974320163248194e-08,8.080705171664704e-08,2158,8.222303760975582e-09,2.3711467624211875e-09,2.1349292008344143e-08,2158,4.74186279709911e-09,1.4607397797602966e-09,1.135755556607692e-08,2158,0.028342052007846154,0.012714083258995647,0.04600580212124033,2158,6.0,6.0,6.0,2158,0.1136299170165172,0.09351273595828265,0.1355219271076875,2158,0.25219344795673243,0.22376345193002484,0.2868375630306998,2158,0.6316460672674586,0.5968033973211552,0.6663448297241791,2158,0.00253056775929212,0.0004357184938003685,0.007582043952616767,2158,3.714911626651171e-18,6.148136713008272e-19,7.810585338954538e-18,2158,1.0,1.0,1.0,2158,1.0,0.9999999999999997,1.0,2158,0.0999999999999963,0.1,0.1,2158,0.5,0.5,0.5,2158
source_seed_condition,precordial_only,101,independent_rms,precordial_only,legacy_0p5_40,2158,-2.0994510192757535e-11,-2.4941248018601278e-08,2.2161140985069126e-08,2158,5.897931887867353e-08,1.835831398011578e-08,9.631285813327395e-08,2158,5.852851097114206e-08,3.4132241921724926e-08,8.431115183782367e-08,2158,8.222303760975582e-09,2.3711467624211875e-09,2.1349292008344143e-08,2158,4.74186279709911e-09,1.4607397797602966e-09,1.135755556607692e-08,2158,0.02843759400165003,0.013666718045190616,0.052591044556130374,2158,6.0,6.0,6.0,2158,0.11374339660112842,0.09272410417745727,0.1347715942104064,2158,0.25252880319938703,0.21480452060135347,0.2879583773348685,2158,0.6311989830404869,0.5867164050203304,0.6665253227901589,2158,0.002528817158997814,0.00045547555420478303,0.008163193202720277,2158,5.382900601836373e-18,2.11525895502192e-18,9.019494489765868e-18,2158,1.0,1.0,1.0,2158,1.0,1.0,1.0,2158,0.0999999999999963,0.1,0.1,2158,0.5,0.5,0.5,2158
source_seed_condition,random_00,101,electrode,randomized,legacy_0p5_40,2158,9.158039467210043e-11,-1.9945485906692198e-08,1.9181247622342136e-08,2158,5.842405178038538e-08,2.5646809120871694e-08,8.928118688800168e-08,2158,5.833939533912143e-08,4.21645101056356e-08,7.457805040189669e-08,2158,1.0799262299949711e-08,4.466019885360199e-09,3.1743247159018066e-08,2158,5.5202643184195196e-09,2.3436558626372403e-09,1.0942906820268199e-08,2158,0.25027131444890555,0.23274064269595313,0.2716546322573772,2158,12.0,12.0,12.0,2158,0.11352596310744664,0.09264747424041471,0.13686503134817976,2158,0.2525029762645895,0.2239765312583804,0.2883773441565358,2158,0.6314359323020654,0.5918142132684618,0.6680053346995968,2158,0.0025351283258989695,0.0004303896656662731,0.010426822142954536,2158,7.626066475722669e-18,2.2241437138421223e-18,1.4069640485950508e-17,2158,1.0,1.0,1.0,2158,1.0,0.9999999999999997,1.0,2158,0.0999999999999963,0.1,0.1,2158,0.5,0.5,0.5,2158
source_seed_condition,random_00,101,independent_rms,randomized,legacy_0p5_40,2158,-1.7871250900065452e-10,-2.1429154348243778e-08,1.8095389827149106e-08,2158,5.850041306818603e-08,2.917270336411093e-08,8.572287057972972e-08,2158,5.824817822102815e-08,4.2472581895935946e-08,7.544081270793868e-08,2158,1.0799262299949711e-08,4.466019885360199e-09,3.1743247159018066e-08,2158,5.5202643184195196e-09,2.3436558626372403e-09,1.0942906820268199e-08,2158,0.028385183886109066,0.020393962001077248,0.03738844344260543,2158,12.0,12.0,12.0,2158,0.11366892173107804,0.09937293499785542,0.12898035790362203,2158,0.25247947723818714,0.2288123378222846,0.2825376951603369,2158,0.6313168973167788,0.6058101808710127,0.653419162462936,2158,0.00253470371395663,0.0006921025297895414,0.0061987375646544475,2158,5.382900601836373e-18,2.11525895502192e-18,9.019494489765868e-18,2158,1.0,1.0,1.0,2158,1.0,1.0,1.0,2158,0.0999999999999963,0.1,0.1,2158,0.5,0.5,0.5,2158
source_seed_condition,random_01,101,electrode,randomized,legacy_0p5_40,2158,1.0649024766058767e-10,-1.874334804907629e-08,2.1837050776079037e-08,2158,5.8404088509312077e-08,2.983040303661255e-08,8.983971078180275e-08,2158,5.845754095433608e-08,4.3516180880942557e-08,7.55797522344892e-08,2158,1.0733958188218027e-08,3.7934918395878095e-09,3.157561241574037e-08,2158,5.532752848351349e-09,1.6572319688840024e-09,1.1671576553502789e-08,2158,0.26384911451259513,0.2394938494111941,0.290367122972537,2158,12.0,12.0,12.0,2158,0.113570199330322,0.08922505433836884,0.1407055498125693,2158,0.25226830890444635,0.21810031406872885,0.2872356012910543,2158,0.6316399742706453,0.590312616787354,0.6760589815635022,2158,0.0025215174945847157,0.0005203001321925753,0.009587922461903379,2158,7.591509055527023e-18,3.192092316820542e-18,1.714111484094435e-17,2158,1.0,1.0,1.0,2158,1.0,0.9999999999999998,1.0000000000000002,2158,0.0999999999999963,0.1,0.1,2158,0.5,0.5,0.5,2158
source_seed_condition,random_01,101,independent_rms,randomized,legacy_0p5_40,2158,3.9819206465713954e-11,-1.617288544243596e-08,1.9128675382079927e-08,2158,5.815439478423989e-08,2.8579574262721508e-08,8.690595088012287e-08,2158,5.832454324016594e-08,4.223933380842482e-08,7.824052161709005e-08,2158,1.0733958188218027e-08,3.7934918395878095e-09,3.157561241574037e-08,2158,5.532752848351349e-09,1.6572319688840024e-09,1.1671576553502789e-08,2158,0.028385183892271636,0.02039396187953317,0.037388443219460436,2158,12.0,12.0,12.0,2158,0.11366320282891453,0.09896837757375006,0.12892852888636855,2158,0.25248391747152144,0.22906232040085237,0.2828595819717492,2158,0.6313181730920128,0.6056174599773371,0.6536869725626325,2158,0.0025347066075519023,0.0006966948650224098,0.006198887065769146,2158,5.382900601836373e-18,2.11525895502192e-18,9.019494489765868e-18,2158,1.0,1.0,1.0,2158,1.0,1.0,1.0,2158,0.0999999999999963,0.1,0.1,2158,0.5,0.5,0.5,2158
source_seed_condition,random_02,101,electrode,randomized,legacy_0p5_40,2158,-2.2637796311674413e-10,-2.2506574770378203e-08,1.879637006721154e-08,2158,5.8343124450467164e-08,2.2745139105495582e-08,8.734279433042502e-08,2158,5.83881395421111e-08,3.954117744342511e-08,7.428901760420104e-08,2158,1.092255650817398e-08,4.0229619563169394e-09,2.8751894880024117e-08,2158,5.508818942075713e-09,2.135148593126836e-09,1.2725501347709864e-08,2158,0.29587969309141887,0.27566914783068663,0.32529461375036256,2158,12.0,12.0,12.0,2158,0.11363916142299967,0.09156995215965365,0.14508737654355833,2158,0.2525088392631572,0.21558723160464047,0.28964506566213216,2158,0.6313235579908781,0.5791011586781706,0.6710284967963773,2158,0.0025284413229645065,0.0004194903412882334,0.012612867973038316,2158,7.63672170970175e-18,2.9817980793354346e-18,1.5490694839383952e-17,2158,1.0,1.0,1.0,2158,1.0,0.9999999999999998,1.0,2158,0.0999999999999963,0.1,0.1,2158,0.5,0.5,0.5,2158
source_seed_condition,random_02,101,independent_rms,randomized,legacy_0p5_40,2158,-2.0303635372882241e-10,-1.841715801399058e-08,1.9270560738916523e-08,2158,5.807412579867178e-08,2.2238985764033714e-08,8.844457433099251e-08,2158,5.827791217003516e-08,4.135462461363204e-08,7.883690855692294e-08,2158,1.092255650817398e-08,4.0229619563169394e-09,2.8751894880024117e-08,2158,5.508818942075713e-09,2.135148593126836e-09,1.2725501347709864e-08,2158,0.028385183900384744,0.02039396199866563,0.03738844354171684,2158,12.0,12.0,12.0,2158,0.11366362583655619,0.09909498414322952,0.12891549164370114,2158,0.2524735380490669,0.22851707775847827,0.2823652273586455,2158,0.6313278437205396,0.6059104163247088,0.6530986861954413,2158,0.00253499239383667,0.0006801568109729117,0.006172395529549891,2158,5.382900601836373e-18,2.11525895502192e-18,9.019494489765868e-18,2158,1.0,1.0,1.0,2158,1.0,1.0,1.0,2158,0.0999999999999963,0.1,0.1,2158,0.5,0.5,0.5,2158
source_seed_condition,random_03,101,electrode,randomized,legacy_0p5_40,2158,-9.788941516728979e-12,-1.9303880749360116e-08,1.7058103277329432e-08,2158,5.841458723837356e-08,2.9633103082460366e-08,8.853598920666172e-08,2158,5.843840188402602e-08,3.872828280293561e-08,7.766526977093235e-08,2158,1.0904700250437481e-08,4.481725543549816e-09,2.978727413816338e-08,2158,5.51015745759278e-09,2.7207122090718896e-09,1.1234764866361366e-08,2158,0.29279700535075304,0.2691189549536028,0.3165261002818974,2158,12.0,12.0,12.0,2158,0.11345856316272342,0.08804258752934324,0.13907074768461924,2158,0.25229013341775597,0.22155867624078027,0.2901320273180531,2158,0.6317147181750646,0.589391326457439,0.6704967914812335,2158,0.0025365852444557183,0.0004120740759358013,0.012478544396397234,2158,7.622478114147861e-18,2.6799106623075382e-18,1.584108395505946e-17,2158,1.0,1.0,1.0,2158,1.0,1.0,1.0000000000000002,2158,0.0999999999999963,0.1,0.1,2158,0.5,0.5,0.5,2158
source_seed_condition,random_03,101,independent_rms,randomized,legacy_0p5_40,2158,-1.2749541621066369e-10,-1.8303655224206212e-08,1.748966103209979e-08,2158,5.825675673797963e-08,2.7901943866481815e-08,8.499152670538024e-08,2158,5.8358306110535884e-08,3.98266095658073e-08,7.244631383684919e-08,2158,1.0904700250437481e-08,4.481725543549816e-09,2.978727413816338e-08,2158,5.51015745759278e-09,2.7207122090718896e-09,1.1234764866361366e-08,2158,0.028385183898863926,0.0203939620514554,0.037388443362993073,2158,12.0,12.0,12.0,2158,0.11365659885778329,0.09929429169644916,0.12883935163769755,2158,0.2524900726347041,0.2287100202081525,0.28312073117058467,2158,0.6313196960319615,0.6049751112792889,0.6536214797232262,2158,0.0025336324755506736,0.0007000039296772597,0.006261000833661318,2158,5.382900601836373e-18,2.11525895502192e-18,9.019494489765868e-18,2158,1.0,1.0,1.0,2158,1.0,1.0,1.0,2158,0.0999999999999963,0.1,0.1,2158,0.5,0.5,0.5,2158
source_seed_condition,random_04,101,electrode,randomized,legacy_0p5_40,2158,-1.978306605130559e-10,-1.8639434531651947e-08,1.9262115159001912e-08,2158,5.847529120416953e-08,2.946826782590506e-08,8.841861465214151e-08,2158,5.83730484433152e-08,4.239751838497341e-08,7.508008792456167e-08,2158,1.0824583133252893e-08,4.548984156671138e-09,3.089733827756426e-08,2158,5.466764223062167e-09,2.2234610710315866e-09,1.0512564002895788e-08,2158,0.25636588172767116,0.23586999247654683,0.2765755025223908,2158,12.0,12.0,12.0,2158,0.1136193767034547,0.09124287107474809,0.14223969613653845,2158,0.25237089186105177,0.22066738007184603,0.28837105788459216,2158,0.6314726697846136,0.5963099590756252,0.6706587507940595,2158,0.0025370616508797864,0.0004210195603957544,0.011054353135932206,2158,7.622013616829641e-18,2.8608446115907796e-18,1.6485721593270667e-17,2158,1.0,1.0,1.0,2158,1.0,0.9999999999999998,1.0,2158,0.0999999999999963,0.1,0.1,2158,0.5,0.5,0.5,2158
source_seed_condition,random_04,101,independent_rms,randomized,legacy_0p5_40,2158,8.260982424631015e-11,-1.6484518954190206e-08,2.0287894388690564e-08,2158,5.860830043749519e-08,2.7209253516957688e-08,8.442425247778829e-08,2158,5.8557271465900126e-08,4.27355466570134e-08,7.666272594519796e-08,2158,1.0824583133252893e-08,4.548984156671138e-09,3.089733827756426e-08,2158,5.466764223062167e-09,2.2234610710315866e-09,1.0512564002895788e-08,2158,0.028385183891463942,0.020393962416055657,0.03738844307838841,2158,12.0,12.0,12.0,2158,0.11365892805012479,0.0992141292598417,0.12888205074254247,2158,0.2524926764054412,0.22911957148717874,0.2824026242863909,2158,0.6313137284464294,0.6059025587751616,0.6534559579417746,2158,0.0025346670980054917,0.0006953184829688407,0.00622231847728581,2158,5.382900601836373e-18,2.11525895502192e-18,9.019494489765868e-18,2158,1.0,1.0,1.0,2158,1.0,1.0,1.0,2158,0.0999999999999963,0.1,0.1,2158,0.5,0.5,0.5,2158
source_seed_condition,band_0p05_5,101,electrode,standard,band_0p05_5,2158,-9.816114887710009e-11,-1.957152405293507e-08,1.9372931813655434e-08,2158,5.829848394292706e-08,2.8652387129568524e-08,9.294761227351955e-08,2158,5.830090888238543e-08,4.21825756546923e-08,7.574057114823063e-08,2158,1.0871323924363959e-08,4.4733814917262415e-09,3.810385178034045e-08,2158,5.4808090424864694e-09,1.9284400289463067e-09,1.2096354635424164e-08,2158,0.22775234288409288,0.18186045866726014,0.2843206925667489,2158,12.0,12.0,12.0,2158,0.9834029013887108,0.9527287247287272,0.9951729507823552,2158,0.01594033630811446,0.004399233433739341,0.046234730983811576,2158,0.0005514187699137259,4.023232664347971e-05,0.0024989481986867645,2158,0.00010534353325997577,4.645054553712521e-06,0.00048043870442799583,2158,0.019440426123726862,0.00561470378893742,0.04597756924708993,2158,0.9993112056926982,0.8295924121551804,1.2355785919199052,2158,0.9972797528678116,0.9854062243629461,0.9997977946485357,2158,0.010000000000000266,0.01,0.01,2158,0.04999999999999815,0.05,0.05,2158
source_seed_condition,band_0p05_5,101,independent_rms,standard,band_0p05_5,2158,1.0935359644984267e-10,-1.80885947690243e-08,2.103638800677377e-08,2158,5.8413705287080593e-08,2.7081627607117298e-08,8.818145325051319e-08,2158,5.846616595948443e-08,3.869706333148315e-08,7.429660087154843e-08,2158,1.0871323924363959e-08,4.4733814917262415e-09,3.810385178034045e-08,2158,5.4808090424864694e-09,1.9284400289463067e-09,1.2096354635424164e-08,2158,0.07983729141618216,0.05488888372490919,0.10815810178483119,2158,12.0,12.0,12.0,2158,0.9835904225268212,0.968279314115667,0.9933403012277346,2158,0.015743817785155014,0.006348683630974325,0.030690925545780234,2158,0.0005589739814602513,8.576858126679552e-05,0.002141768098281986,2158,0.00010678570656484473,1.4962939321042172e-05,0.0004138174815792506,2158,0.01605321205389844,0.006396262108285939,0.029191320932157698,2158,1.0010075265963694,0.8662637974845937,1.1409517076614573,2158,0.997292368612525,0.9915014592580168,0.9995852847119882,2158,0.010000000000000266,0.01,0.01,2158,0.04999999999999815,0.05,0.05,2158
source_seed_condition,band_5_15,101,electrode,standard,band_5_15,2158,6.339197729041564e-11,-1.8776221490389357e-08,2.141535423436504e-08,2158,5.843964866016114e-08,2.8247981731510663e-08,9.504504205892772e-08,2158,5.8479232897192384e-08,4.086295568583864e-08,7.683542335712445e-08,2158,1.0877948076712197e-08,3.959753536003151e-09,3.4405801696579835e-08,2158,5.402097348789704e-09,2.1815181942564176e-09,1.0810255637152547e-08,2158,0.21399040783275647,0.18521269111464478,0.2661077673192021,2158,12.0,12.0,12.0,2158,0.0022881404357772968,0.0004077651724024828,0.007397917425665451,2158,0.9893901701361334,0.9740326963997633,0.9965022011554756,2158,0.008203183586741113,0.002125171809903872,0.023043844484879797,2158,0.00011850584134872111,6.931094454095012e-06,0.0005510869319434052,2158,0.0014150171961534353,0.00041918227940830805,0.0033126363415357405,2158,0.9990205460645267,0.8713269825183733,1.1410229716227491,2158,0.9999928675303729,0.9999652671908469,0.9999994189844573,2158,0.010000000000000266,0.01,0.01,2158,5.0,5.0,5.0,2158
source_seed_condition,band_5_15,101,independent_rms,standard,band_5_15,2158,-3.376117277309856e-11,-2.007190297001123e-08,1.7174993266399533e-08,2158,5.800663455283907e-08,2.9502926324198597e-08,8.539698370668702e-08,2158,5.81951350929054e-08,4.08607085944368e-08,7.369816401592288e-08,2158,1.0877948076712197e-08,3.959753536003151e-09,3.4405801696579835e-08,2158,5.402097348789704e-09,2.1815181942564176e-09,1.0810255637152547e-08,2158,0.056479514452658294,0.037555282642553305,0.07178983838685737,2158,12.0,12.0,12.0,2158,0.002293677477133579,0.0007923784844468526,0.005676888037440414,2158,0.989342269871715,0.980356228318875,0.99516101135431,2158,0.008242797404269305,0.003084389684548521,0.016828393040598577,2158,0.0001212552468822265,1.1040547419356216e-05,0.0004222498291119484,2158,0.001158742995302804,0.0004711883682874889,0.002136752868623603,2158,1.0001395202415695,0.9136223767342191,1.1198818702190514,2158,0.9999930001776314,0.9999774556299688,0.9999988575513905,2158,0.010000000000000266,0.01,0.01,2158,5.0,5.0,5.0,2158
source_seed_condition,band_15_40,101,electrode,standard,band_15_40,2158,-2.3214089050783089e-10,-1.8601694129595368e-08,1.828531219223636e-08,2158,5.827286820149708e-08,2.5428159133866757e-08,8.998764222667432e-08,2158,5.840133820104138e-08,4.151243970795804e-08,7.38900638452833e-08,2158,1.0779042379047233e-08,4.510740654681505e-09,2.874493023065759e-08,2158,5.489281704508527e-09,2.2976937707194178e-09,1.1130724395677841e-08,2158,0.20208035849813816,0.1834687976609452,0.2246236820056345,2158,12.0,12.0,12.0,2158,0.00010678606610132598,5.8419877241113925e-06,0.0005129409286107509,2158,0.0010463048937421563,0.00017780854354934153,0.003893020044471013,2158,0.9955458113824707,0.9897716177039361,0.998609104987597,2158,0.0033010976576865704,0.0008255760602266046,0.009378520418070567,2158,0.0008508133346382204,0.00017961787877570113,0.001975922238006379,2158,0.9996747681303916,0.9026383680713861,1.086426604603124,2158,0.9999989611138063,0.9999949319600385,0.9999999599929551,2158,0.010000000000000266,0.01,0.01,2158,15.0,15.0,15.0,2158
source_seed_condition,band_15_40,101,independent_rms,standard,band_15_40,2158,6.316590585456748e-12,-2.2452904160621907e-08,1.9698804099979518e-08,2158,5.8195997626099275e-08,2.9796352052358088e-08,8.819389485381635e-08,2158,5.83287541796613e-08,4.067861425482988e-08,7.450375250073193e-08,2158,1.0779042379047233e-08,4.510740654681505e-09,2.874493023065759e-08,2158,5.489281704508527e-09,2.2976937707194178e-09,1.1130724395677841e-08,2158,0.03572080347644799,0.025711142968587956,0.047995491468352885,2158,12.0,12.0,12.0,2158,0.0001089598928940384,1.6038849619547616e-05,0.0003323643376834786,2158,0.0010689475002998545,0.00036257076629587213,0.002147742683669405,2158,0.9955107877725071,0.991841198326758,0.9978609904175798,2158,0.0033113048342989946,0.0013292019952335973,0.00638606826935851,2158,0.0007135356144347589,0.0002690615482346457,0.0012725653638648521,2158,0.999743151165514,0.9313124548492615,1.0667055003252957,2158,0.9999989404629932,0.9999967453825541,0.999999853446692,2158,0.010000000000000266,0.01,0.01,2158,15.0,15.0,15.0,2158
source_seed_condition,band_0p5_40,101,electrode,standard,band_0p5_40,2158,3.494810444612252e-11,-1.7282260300488868e-08,2.2735240803057103e-08,2158,5.8401494662848134e-08,2.169242208083233e-08,8.526865968860875e-08,2158,5.8419438199732046e-08,3.886162325272835e-08,7.849983063579202e-08,2158,1.0929232681585478e-08,4.276085183877385e-09,3.489641613407306e-08,2158,5.4878513461733895e-09,1.939798374267407e-09,1.0885320555412382e-08,2158,0.1976339774759806,0.1809584072236296,0.21794636510966436,2158,12.0,12.0,12.0,2158,0.11266895046700914,0.09085308710437436,0.13755076104420424,2158,0.25302168390535146,0.21977514707220516,0.2944374936417938,2158,0.6321780306125557,0.5908876010244613,0.6672511146656582,2158,0.002131335015084415,0.00045474565972103767,0.00556837262432464,2158,0.005298349682480078,0.0008644340555594991,0.012858108522964462,2158,0.9994247226262947,0.9335851171972338,1.0729912182347652,2158,0.9999747844407517,0.9998656940519945,0.999999392648629,2158,0.010000000000000266,0.01,0.01,2158,0.5,0.5,0.5,2158
source_seed_condition,band_0p5_40,101,independent_rms,standard,band_0p5_40,2158,1.0515531605627051e-10,-1.6645707255166867e-08,1.915190506631935e-08,2158,5.8548414595148955e-08,2.80171441602306e-08,9.066387463008141e-08,2158,5.851280295382289e-08,4.3203360888810494e-08,7.31619653748794e-08,2158,1.0929232681585478e-08,4.276085183877385e-09,3.489641613407306e-08,2158,5.4878513461733895e-09,1.939798374267407e-09,1.0885320555412382e-08,2158,0.02841463503386385,0.01976968699181337,0.04000180162981469,2158,12.0,12.0,12.0,2158,0.11294309074874025,0.09808960558408868,0.12978494675075872,2158,0.2530654945041125,0.23097023021434468,0.27700559292377436,2158,0.6318548696794388,0.6043549803989035,0.6558818431590101,2158,0.002136545067707902,0.0008496035736670125,0.004145625952402036,2158,0.004363892405494011,0.0017637049499921653,0.007704545933430083,2158,1.0000286006185637,0.9523485043763608,1.0676399918964363,2158,0.999974847691851,0.9999227771200804,0.9999960586909485,2158,0.010000000000000266,0.01,0.01,2158,0.5,0.5,0.5,2158
source_seed_condition,standard,202,electrode,standard,legacy_0p5_40,2158,2.1879114245751756e-11,-1.6825698013165173e-08,1.8848798622685876e-08,2158,1.4851368203068796e-07,9.539926537627252e-08,2.30046278915097e-07,2158,1.494484888646267e-07,1.3283390032370335e-07,1.6432061755722316e-07,2158,2.8258130514142695e-08,9.835896817445358e-09,1.4745453047228282e-07,2158,6.788218352283548e-09,3.540217559998394e-09,1.2110935739671125e-08,2158,0.19773202265089762,0.18113970483006903,0.22236097686341746,2158,12.0,12.0,12.0,2158,0.11363639697636913,0.09055981544554903,0.13858020808366348,2158,0.2525080324308524,0.22029978894913652,0.29026051200695563,2158,0.6312870228769748,0.5941416137862275,0.6668111859803714,2158,0.002568547715805056,0.0004593953210157464,0.008097378401279023,2158,7.534345049085358e-18,2.9624445261614194e-18,1.4816105476134362e-17,2158,1.0,1.0,1.0,2158,1.0,1.0,1.0000000000000002,2158,0.0999999999999963,0.1,0.1,2158,0.5,0.5,0.5,2158
source_seed_condition,standard,202,independent_rms,standard,legacy_0p5_40,2158,-1.2259796058965496e-10,-1.9588611935719434e-08,1.833271467298241e-08,2158,1.486753390778228e-07,1.0088788116036085e-07,2.2630804252798953e-07,2158,1.494303144836686e-07,1.315554207792502e-07,1.6453310536235222e-07,2158,2.8258130514142695e-08,9.835896817445358e-09,1.4745453047228282e-07,2158,6.788218352283548e-09,3.540217559998394e-09,1.2110935739671125e-08,2158,0.02829493396011998,0.017236446191093057,0.03814266515698727,2158,12.0,12.0,12.0,2158,0.11370313997141905,0.09705475094361267,0.1322336918962706,2158,0.25256016614893334,0.23120461914929563,0.2730783237407361,2158,0.631194512104006,0.6061170816127865,0.6524924979840033,2158,0.002542181775641569,0.0008189125624885173,0.0061591180659410685,2158,5.322844856964725e-18,2.2752801345137457e-18,8.535490115839795e-18,2158,1.0,1.0,1.0,2158,1.0,1.0,1.0,2158,0.0999999999999963,0.1,0.1,2158,0.5,0.5,0.5,2158
source_seed_condition,limb_only,202,electrode,limb_only,legacy_0p5_40,2158,-1.722324423832796e-10,-2.4842492206512995e-08,1.960498468118308e-08,2158,5.803450578741937e-08,2.3595916331942135e-08,8.701782761022514e-08,2158,5.825578291907542e-08,3.4792378755810205e-08,8.137618934256352e-08,2158,1.5062733616413214e-08,4.637746736251485e-09,4.8461735270775574e-08,2158,5.337088876440093e-09,1.7887158053179556e-09,1.1716779821873642e-08,2158,0.3683009629402263,0.3520348682533032,0.4081935621916015,2158,12.0,12.0,12.0,2158,0.11363353406293145,0.08244612218763896,0.1539726872070313,2158,0.2524152460040018,0.199907886425166,0.30249667329242313,2158,0.6313935274738669,0.583890729447024,0.6797452231966598,2158,0.0025576924592021996,0.00011717249646352836,0.011247006272814336,2158,6.114727256405632e-18,1.2883690548140878e-18,1.3672130972639036e-17,2158,1.0,1.0,1.0,2158,1.0,0.9999999999999999,1.0,2158,0.0999999999999963,0.1,0.1,2158,0.5,0.5,0.5,2158
source_seed_condition,limb_only,202,independent_rms,limb_only,legacy_0p5_40,2158,-1.487389653216597e-10,-2.1547567011430147e-08,1.903537187846352e-08,2158,5.856003027236731e-08,2.1760875767995458e-08,9.451607141386376e-08,2158,5.853066565165392e-08,4.085294591504862e-08,7.820537817337936e-08,2158,1.5062733616413214e-08,4.637746736251485e-09,4.8461735270775574e-08,2158,5.337088876440093e-09,1.7887158053179556e-09,1.1716779821873642e-08,2158,0.02829493396721265,0.017236446129265264,0.03814266535476043,2158,12.0,12.0,12.0,2158,0.11369915960397714,0.09622322583592843,0.13388460957055198,2158,0.25258259891826423,0.22873984531121627,0.2776514669637179,2158,0.6311745584785532,0.6020265969688897,0.6553590956021819,2158,0.002543682999205582,0.0005894560343279848,0.007647275822059197,2158,5.322844856964725e-18,2.2752801345137457e-18,8.535490115839795e-18,2158,1.0,1.0,1.0,2158,1.0,1.0,1.0,2158,0.0999999999999963,0.1,0.1,2158,0.5,0.5,0.5,2158
source_seed_condition,precordial_only,202,electrode,precordial_only,legacy_0p5_40,2158,7.459833848688014e-11,-2.333910182050708e-08,2.0823784659902305e-08,2158,5.859927575123482e-08,1.8945186752716836e-08,9.50146947786834e-08,2158,5.847623931940429e-08,3.559857475465833e-08,8.145100416356854e-08,2158,8.257248200827887e-09,2.5656978093310267e-09,2.412339655097112e-08,2158,4.704448024803003e-09,1.5569979414534484e-09,1.1358497382329708e-08,2158,0.02837642030634835,0.01100974282362381,0.051705847241169764,2158,6.0,6.0,6.0,2158,0.11363720642897332,0.09199505373733613,0.141416709140265,2158,0.2526974934669814,0.2233041003389528,0.28890714210337015,2158,0.631078998234589,0.5873200636361218,0.6661743264024806,2158,0.0025863018694573343,0.0004930734119549797,0.008868441658553208,2158,3.694373470853597e-18,8.694778322860238e-19,7.414428119052019e-18,2158,1.0,1.0,1.0,2158,1.0,0.9999999999999998,1.0,2158,0.0999999999999963,0.1,0.1,2158,0.5,0.5,0.5,2158
source_seed_condition,precordial_only,202,independent_rms,precordial_only,legacy_0p5_40,2158,2.934367290538349e-11,-2.431506293897137e-08,2.7594139720976832e-08,2158,5.854412794976163e-08,2.0520342758345578e-08,1.0003106964973085e-07,2158,5.838281248501682e-08,2.9904203557862274e-08,8.087691227842697e-08,2158,8.257248200827887e-09,2.5656978093310267e-09,2.412339655097112e-08,2158,4.704448024803003e-09,1.5569979414534484e-09,1.1358497382329708e-08,2158,0.028148788016831613,0.012454072102931925,0.04934612072897559,2158,6.0,6.0,6.0,2158,0.11370190664564017,0.09295499566653267,0.13491473931379466,2158,0.25251935470384995,0.22320824266959513,0.2859648882865112,2158,0.6312406544089919,0.5937105281886245,0.6633399885692489,2158,0.002538084241516713,0.0005375346828957685,0.0074218067584549885,2158,5.322844856964725e-18,2.2752801345137457e-18,8.535490115839795e-18,2158,1.0,1.0,1.0,2158,1.0,1.0,1.0,2158,0.0999999999999963,0.1,0.1,2158,0.5,0.5,0.5,2158
source_seed_condition,random_00,202,electrode,randomized,legacy_0p5_40,2158,5.583071068032794e-11,-1.6514190346121306e-08,1.9411345798114063e-08,2158,5.8478645805494914e-08,3.044504737204079e-08,9.201283646120828e-08,2158,5.849392169314478e-08,3.967752348899012e-08,7.651694033938838e-08,2158,1.0933233665940786e-08,4.006302016295414e-09,3.766611073125995e-08,2158,5.481929908033667e-09,2.3211294386565807e-09,1.1756785281020228e-08,2158,0.25014062317914465,0.23235883006737035,0.27107642168065826,2158,12.0,12.0,12.0,2158,0.11357068123926815,0.08924750733962351,0.13879064688444484,2158,0.25264026795348665,0.221386370884391,0.2895131595939886,2158,0.631230975684559,0.596192008706831,0.6688681130207953,2158,0.002558075122686322,0.0005110849622840724,0.008942959485104526,2158,7.542483487262832e-18,2.6737711109153342e-18,1.577402539583542e-17,2158,1.0,1.0,1.0,2158,1.0,1.0,1.0,2158,0.0999999999999963,0.1,0.1,2158,0.5,0.5,0.5,2158
source_seed_condition,random_00,202,independent_rms,randomized,legacy_0p5_40,2158,1.2341373778363486e-11,-2.000095546931465e-08,1.8585033846516043e-08,2158,5.844646772611973e-08,2.5113974899682034e-08,8.71210747988016e-08,2158,5.85221901148333e-08,4.466820513471248e-08,7.849632233103421e-08,2158,1.0933233665940786e-08,4.006302016295414e-09,3.766611073125995e-08,2158,5.481929908033667e-09,2.3211294386565807e-09,1.1756785281020228e-08,2158,0.02829493397547668,0.01723644625550615,0.03814266487180203,2158,12.0,12.0,12.0,2158,0.1136985945308771,0.09829936577417972,0.1324401112472607,2158,0.25255664023630525,0.2312503204166546,0.27353821449695376,2158,0.6312019760272868,0.6054891442204271,0.6519470534076632,2158,0.002542789205530236,0.0008085330438575953,0.0060180037155283545,2158,5.322844856964725e-18,2.2752801345137457e-18,8.535490115839795e-18,2158,1.0,1.0,1.0,2158,1.0,1.0,1.0,2158,0.0999999999999963,0.1,0.1,2158,0.5,0.5,0.5,2158
source_seed_condition,random_01,202,electrode,randomized,legacy_0p5_40,2158,2.817018493021824e-12,-1.997852183719323e-08,2.150337418776723e-08,2158,5.831164138511051e-08,2.659511011415816e-08,9.427325409205878e-08,2158,5.841340570672213e-08,3.923593716592677e-08,7.81846498654204e-08,2158,1.1027199927609487e-08,4.12986030196641e-09,3.5150312941383504e-08,2158,5.51779109576889e-09,2.535399362675587e-09,1.107717462393012e-08,2158,0.2638746741453676,0.24349600727385673,0.2903977620478655,2158,12.0,12.0,12.0,2158,0.11362853420533009,0.09157868813007412,0.14552560530556374,2158,0.2523423011531191,0.21726853056166476,0.2906633085795691,2158,0.6314705538469922,0.5928164309100873,0.6653899300059763,2158,0.002558610794557663,0.0005065133735881175,0.009754233769145547,2158,7.621694577796129e-18,3.022852761682258e-18,1.8406055785747263e-17,2158,1.0,1.0,1.0,2158,1.0,0.9999999999999998,1.0,2158,0.0999999999999963,0.1,0.1,2158,0.5,0.5,0.5,2158
source_seed_condition,random_01,202,independent_rms,randomized,legacy_0p5_40,2158,-1.0451233092804603e-10,-2.1063869512945018e-08,1.7247556979315162e-08,2158,5.834288120646741e-08,2.8941302687712778e-08,9.246240928462157e-08,2158,5.839764961417366e-08,4.2513610409855573e-08,7.841017080068013e-08,2158,1.1027199927609487e-08,4.12986030196641e-09,3.5150312941383504e-08,2158,5.51779109576889e-09,2.535399362675587e-09,1.107717462393012e-08,2158,0.028294933962606468,0.017236446508467063,0.038142664872317066,2158,12.0,12.0,12.0,2158,0.11369974950719672,0.09768904235132089,0.13239634098612915,2158,0.25256084925225836,0.23102156692854284,0.27317245003828966,2158,0.631197473740763,0.6056881235781009,0.6522086682787002,2158,0.0025419274997811312,0.0008138211044156038,0.005949459621244645,2158,5.322844856964725e-18,2.2752801345137457e-18,8.535490115839795e-18,2158,1.0,1.0,1.0,2158,1.0,1.0,1.0,2158,0.0999999999999963,0.1,0.1,2158,0.5,0.5,0.5,2158
source_seed_condition,random_02,202,electrode,randomized,legacy_0p5_40,2158,-6.453126408750338e-11,-1.8527459236575305e-08,1.6953147804935678e-08,2158,5.807289581725797e-08,2.2740893612649415e-08,9.31443917551178e-08,2158,5.8366156368102736e-08,4.279256415884447e-08,7.611889607517242e-08,2158,1.088469855234483e-08,4.743139305729426e-09,3.1440229821688695e-08,2158,5.482767537983469e-09,2.3121115840311198e-09,1.1743633822548454e-08,2158,0.2955815230345106,0.2732015601487587,0.3282003222530808,2158,12.0,12.0,12.0,2158,0.11350000035661133,0.0892661924623371,0.14764386429600304,2158,0.25248332230508574,0.21322806231482272,0.2932958971464717,2158,0.631462887949232,0.5887824071557097,0.6743889737271049,2158,0.0025537893890713193,0.0003690475915715218,0.008559215280130435,2158,7.551192090920733e-18,2.764433037591714e-18,1.469763654005529e-17,2158,1.0,1.0,1.0,2158,1.0,1.0,1.0000000000000002,2158,0.0999999999999963,0.1,0.1,2158,0.5,0.5,0.5,2158
source_seed_condition,random_02,202,independent_rms,randomized,legacy_0p5_40,2158,-2.1849098208184443e-10,-1.8786472773566886e-08,1.8313901608516797e-08,2158,5.826265565850375e-08,2.6082263460125432e-08,9.02705128424941e-08,2158,5.832314539467711e-08,4.1568013031678674e-08,7.491802911374634e-08,2158,1.088469855234483e-08,4.743139305729426e-09,3.1440229821688695e-08,2158,5.482767537983469e-09,2.3121115840311198e-09,1.1743633822548454e-08,2158,0.02829493396635005,0.017236446127363803,0.03814266472946438,2158,12.0,12.0,12.0,2158,0.11369384189792034,0.09749687946295368,0.13231952435111152,2158,0.25255614787249825,0.23105106140316672,0.27340492806726047,2158,0.6312075429442121,0.6059556209257876,0.6522152437797122,2158,0.002542467285368961,0.0008100245012736888,0.006015760204709331,2158,5.322844856964725e-18,2.2752801345137457e-18,8.535490115839795e-18,2158,1.0,1.0,1.0,2158,1.0,1.0,1.0,2158,0.0999999999999963,0.1,0.1,2158,0.5,0.5,0.5,2158
source_seed_condition,random_03,202,electrode,randomized,legacy_0p5_40,2158,3.009608893047632e-11,-1.8417561102873312e-08,1.9784751713700318e-08,2158,5.775622397394313e-08,2.318803105083589e-08,8.850505750501725e-08,2158,5.819626960872106e-08,4.095442562856988e-08,7.538016610908471e-08,2158,1.0900166393975184e-08,4.291161452669406e-09,2.811558612365896e-08,2158,5.5227387754346254e-09,1.6499817681799882e-09,1.0944486286953308e-08,2158,0.29258878262424487,0.27202740893112604,0.31412276652809595,2158,12.0,12.0,12.0,2158,0.1137055295240572,0.08889443176146812,0.14327082411707817,2158,0.2525155938466481,0.21210815036243702,0.28514948148249936,2158,0.6312103697264732,0.5941878803309243,0.6703757582678418,2158,0.002568506902821289,0.00043847742136804733,0.009349730451935517,2158,7.563771890930986e-18,2.5671531857358783e-18,1.575421728633831e-17,2158,1.0,1.0,1.0,2158,1.0,1.0,1.0000000000000002,2158,0.0999999999999963,0.1,0.1,2158,0.5,0.5,0.5,2158
source_seed_condition,random_03,202,independent_rms,randomized,legacy_0p5_40,2158,-5.389917410544015e-11,-1.8720563883925764e-08,1.950172546085693e-08,2158,5.843577596765361e-08,2.5248649393461164e-08,8.400981954537201e-08,2158,5.844527011835659e-08,3.987477903422132e-08,7.470330487535648e-08,2158,1.0900166393975184e-08,4.291161452669406e-09,2.811558612365896e-08,2158,5.5227387754346254e-09,1.6499817681799882e-09,1.0944486286953308e-08,2158,0.028294933961686718,0.017236446273960246,0.03814266478414572,2158,12.0,12.0,12.0,2158,0.11369390839155862,0.09732290024292758,0.1319726392253422,2158,0.25256241532855384,0.2306628772550738,0.2733217483714595,2158,0.6312009468554312,0.6061545860274865,0.6522589888418638,2158,0.0025427294244571995,0.0008207693739301634,0.006070954652249291,2158,5.322844856964725e-18,2.2752801345137457e-18,8.535490115839795e-18,2158,1.0,1.0,1.0,2158,1.0,1.0,1.0,2158,0.0999999999999963,0.1,0.1,2158,0.5,0.5,0.5,2158
source_seed_condition,random_04,202,electrode,randomized,legacy_0p5_40,2158,1.1143616682684583e-10,-1.729350869826725e-08,1.6495260053065324e-08,2158,5.866662338791865e-08,2.3933914405915857e-08,8.721294797453538e-08,2158,5.835739207616406e-08,4.128654040869151e-08,7.306395133355181e-08,2158,1.073888821851765e-08,4.374593457759725e-09,2.761900248403128e-08,2158,5.5264501793200774e-09,1.9435732535586505e-09,1.1677047621199878e-08,2158,0.256283620975837,0.23876455054873966,0.2757128429197886,2158,12.0,12.0,12.0,2158,0.11367396412288235,0.08748286677065342,0.1457904429152189,2158,0.2525041740263334,0.22031722736887355,0.2926756251966943,2158,0.6312478515861513,0.5959019539899225,0.6693721457124066,2158,0.0025740102646335233,0.0005061596093603559,0.010016657155778408,2158,7.544809401322632e-18,2.4833615267590788e-18,1.5137759643192248e-17,2158,1.0,1.0,1.0,2158,1.0,1.0,1.0,2158,0.0999999999999963,0.1,0.1,2158,0.5,0.5,0.5,2158
source_seed_condition,random_04,202,independent_rms,randomized,legacy_0p5_40,2158,2.5294251685036813e-11,-1.6761803121475478e-08,2.175448216582473e-08,2158,5.864243446190457e-08,3.16373949260651e-08,8.968681619592189e-08,2158,5.8464904346077754e-08,3.988802177445905e-08,7.41165528950205e-08,2158,1.073888821851765e-08,4.374593457759725e-09,2.761900248403128e-08,2158,5.5264501793200774e-09,1.9435732535586505e-09,1.1677047621199878e-08,2158,0.028294933960811303,0.017236446586118084,0.038142665276301946,2158,12.0,12.0,12.0,2158,0.11369069211883552,0.0978334258323287,0.1326279064396091,2158,0.2525597243147574,0.23065715778239732,0.273329856506943,2158,0.6312062620689912,0.6059367538946866,0.6520718101273452,2158,0.002543321497416187,0.0008147893984121527,0.0059736660464381934,2158,5.322844856964725e-18,2.2752801345137457e-18,8.535490115839795e-18,2158,1.0,1.0,1.0,2158,1.0,1.0,1.0,2158,0.0999999999999963,0.1,0.1,2158,0.5,0.5,0.5,2158
source_seed_condition,band_0p05_5,202,electrode,standard,band_0p05_5,2158,1.772850597223543e-10,-1.8446187163839438e-08,2.1497353891423344e-08,2158,5.8622338519694294e-08,2.4934934117482044e-08,9.09205830623705e-08,2158,5.8453589073190615e-08,3.9905092563685685e-08,7.748726815748341e-08,2158,1.0883131983705003e-08,3.743847599641962e-09,3.547171312297821e-08,2158,5.421238770014605e-09,2.146001653291696e-09,1.0721954500649622e-08,2158,0.22766336249983707,0.18661993155286985,0.2911979352955913,2158,12.0,12.0,12.0,2158,0.9837353610899774,0.9523972495186762,0.9956796702371958,2158,0.01563451850570468,0.004006012454421921,0.04678292849299991,2158,0.0005291302563011904,4.910459917398029e-05,0.002869978998973987,2158,0.00010099014801776944,9.036794763178681e-06,0.0005513407495872224,2158,0.01925702623756607,0.0038442400196870984,0.04611734433854607,2158,1.0006684055475061,0.8226044295836044,1.2679546774878152,2158,0.9973299730413967,0.9869164640993591,0.9999009838637163,2158,0.010000000000000266,0.01,0.01,2158,0.04999999999999815,0.05,0.05,2158
source_seed_condition,band_0p05_5,202,independent_rms,standard,band_0p05_5,2158,4.9956712602687804e-11,-1.9806110692985925e-08,1.836671782363688e-08,2158,5.865263879727323e-08,2.71228532966461e-08,9.209399820520048e-08,2158,5.846526065790673e-08,4.191456959290463e-08,7.412321245681142e-08,2158,1.0883131983705003e-08,3.743847599641962e-09,3.547171312297821e-08,2158,5.421238770014605e-09,2.146001653291696e-09,1.0721954500649622e-08,2158,0.08007196952147064,0.05899241889725395,0.11034789882923719,2158,12.0,12.0,12.0,2158,0.9835259073479015,0.9668034069003596,0.9930304968150702,2158,0.015809881068605088,0.0066518390254038445,0.032106235947721544,2158,0.0005576994430151071,6.33034710786086e-05,0.0017399594393318343,2158,0.00010651214047863065,1.0233720599320428e-05,0.0003346808460831718,2158,0.015990349035380182,0.006382568093908856,0.02693538276199637,2158,0.9993673162831017,0.8718388593144314,1.141911407285113,2158,0.9973064976543627,0.9924434571171876,0.9996016160837286,2158,0.010000000000000266,0.01,0.01,2158,0.04999999999999815,0.05,0.05,2158
source_seed_condition,band_5_15,202,electrode,standard,band_5_15,2158,6.62007929331761e-11,-1.8309125371783293e-08,1.8240737119609847e-08,2158,5.846887283344327e-08,2.7189537732397184e-08,8.35201969806576e-08,2158,5.829055645911092e-08,4.011719845209427e-08,7.700146475997371e-08,2158,1.095258696497653e-08,4.117132898019915e-09,3.306518655083267e-08,2158,5.483658970489854e-09,2.509782116226794e-09,1.0526233068953939e-08,2158,0.21400517385485526,0.18364885108251144,0.2539436214820363,2158,12.0,12.0,12.0,2158,0.0022535998134831574,0.00040297705284443906,0.007748982165429958,2158,0.9894409264075748,0.9738095127441618,0.9961598102489522,2158,0.008188675327297919,0.0021267077984121986,0.023897667519209617,2158,0.00011679845164495137,8.807936055314793e-06,0.0005556367982397593,2158,0.0013929718276881335,0.0003799440558895634,0.0032825925210890066,2158,1.0008385531387665,0.8599017972024365,1.137937518281278,2158,0.9999931033502838,0.9999674909733336,0.99999951430797,2158,0.010000000000000266,0.01,0.01,2158,5.0,5.0,5.0,2158
source_seed_condition,band_5_15,202,independent_rms,standard,band_5_15,2158,1.3177179819887722e-10,-1.7546643694925378e-08,2.189793744768317e-08,2158,5.8291195276706184e-08,2.2720673342746522e-08,8.674694385035764e-08,2158,5.842983978232389e-08,4.121740282414521e-08,7.459529527409359e-08,2158,1.095258696497653e-08,4.117132898019915e-09,3.306518655083267e-08,2158,5.483658970489854e-09,2.509782116226794e-09,1.0526233068953939e-08,2158,0.056322461146408515,0.03897280366887409,0.07563733059946756,2158,12.0,12.0,12.0,2158,0.0022620689261495263,0.0006177628547425526,0.006612001717339937,2158,0.9894230229736805,0.9798645796401279,0.9953865131810948,2158,0.008194992754903872,0.002990467397482381,0.017973953934120768,2158,0.0001199153452668131,1.428858521125336e-05,0.00041477377191526593,2158,0.0011454161755716612,0.0005178869112077341,0.002148650741808698,2158,0.9992033274181968,0.919997623607584,1.1008746720634943,2158,0.999993164694061,0.9999768432213169,0.9999986382679229,2158,0.010000000000000266,0.01,0.01,2158,5.0,5.0,5.0,2158
source_seed_condition,band_15_40,202,electrode,standard,band_15_40,2158,6.548013502713606e-12,-1.9902143244181653e-08,1.9001494090384392e-08,2158,5.835579973030227e-08,2.797763087869498e-08,9.016843449671796e-08,2158,5.829629408182439e-08,4.154387944765858e-08,7.765424570038704e-08,2158,1.0894544238913891e-08,3.4116379380691643e-09,2.5385003678585847e-08,2158,5.517212472035557e-09,2.3835191921880474e-09,1.1086437079351816e-08,2158,0.20203572552065188,0.18244999408330217,0.22843735106442825,2158,12.0,12.0,12.0,2158,0.00011009475967687165,6.211054256280547e-06,0.0004897507016227808,2158,0.0010740904760971075,0.00028913952702089426,0.0037331424292101852,2158,0.9954860619101478,0.9900888188027087,0.9985143563065557,2158,0.003329752854077821,0.0008306249449742241,0.00872385910716933,2158,0.0008684178413890861,0.0001782083180934707,0.0019371752583268727,2158,0.9996628253651775,0.9126641226966198,1.099527558001096,2158,0.9999989285689936,0.9999951942797213,0.9999999600882632,2158,0.010000000000000266,0.01,0.01,2158,15.0,15.0,15.0,2158
source_seed_condition,band_15_40,202,independent_rms,standard,band_15_40,2158,-1.5978661004694307e-11,-1.8089698923978103e-08,2.052235614616939e-08,2158,5.812770042872998e-08,2.3088610134891496e-08,9.191378502748648e-08,2158,5.822359349669872e-08,3.9111140992531546e-08,7.826973025260031e-08,2158,1.0894544238913891e-08,3.4116379380691643e-09,2.5385003678585847e-08,2158,5.517212472035557e-09,2.3835191921880474e-09,1.1086437079351816e-08,2158,0.03555720259684793,0.022783463354830537,0.04740406374318194,2158,12.0,12.0,12.0,2158,0.0001067291876624415,1.7758357310209007e-05,0.00033555988859784014,2158,0.0010533666040157307,0.00036200484718233283,0.0025421534427174514,2158,0.9955525219063613,0.9908575924672319,0.9976367355682513,2158,0.00328738230196191,0.0014230398465719498,0.007950241672774586,2158,0.0007068157583028688,0.0002790619633910081,0.0012719181002845286,2158,1.0002629907640432,0.9482617091499594,1.0651531411941275,2158,0.9999989588566124,0.9999967384270573,0.9999998418954014,2158,0.010000000000000266,0.01,0.01,2158,15.0,15.0,15.0,2158
source_seed_condition,band_0p5_40,202,electrode,standard,band_0p5_40,2158,7.669940123770596e-11,-1.8263202651141465e-08,1.6740496241491183e-08,2158,5.858062033564334e-08,3.156672079285272e-08,9.087639440963358e-08,2158,5.8425495436618966e-08,4.2173443404180944e-08,7.505948929065198e-08,2158,1.0845585774456972e-08,4.317658725921485e-09,3.205088917352131e-08,2158,5.486044703237488e-09,2.4367549249239356e-09,1.198432002863744e-08,2158,0.1977642814473261,0.18085895459333043,0.21939044928222703,2158,12.0,12.0,12.0,2158,0.11283186243141105,0.08945818550231258,0.14075230756621543,2158,0.253300439346252,0.22120495448314445,0.2862433116473311,2158,0.6317225396794254,0.5950389005367681,0.6670302689523171,2158,0.002145158542912676,0.0005165615355524172,0.005142117471268359,2158,0.005288600248176129,0.0013221968649450206,0.011895007096041053,2158,1.0000579189892904,0.9335382968927807,1.1061502782877615,2158,0.9999747725844718,0.9998846222713575,0.9999986101683953,2158,0.010000000000000266,0.01,0.01,2158,0.5,0.5,0.5,2158
source_seed_condition,band_0p5_40,202,independent_rms,standard,band_0p5_40,2158,2.6083599530643536e-10,-2.0974757939984473e-08,2.2851916711277956e-08,2158,5.8428655935975787e-08,3.028757333822796e-08,8.785074179229468e-08,2158,5.828120509687667e-08,4.0730672168365345e-08,7.616183061998072e-08,2158,1.0845585774456972e-08,4.317658725921485e-09,3.205088917352131e-08,2158,5.486044703237488e-09,2.4367549249239356e-09,1.198432002863744e-08,2158,0.028376924735714106,0.019615263061839958,0.03812482534963427,2158,12.0,12.0,12.0,2158,0.11265759801492303,0.09638666776270456,0.1317284602755371,2158,0.25289787764099,0.2300822608140724,0.27441645657954367,2158,0.6323230743131452,0.6075594284813528,0.6569017628894239,2158,0.0021214500309414443,0.0009322572009136833,0.005001384153905135,2158,0.0044069659055545555,0.0015806300010309398,0.0081110137836662,2158,0.9998952160121966,0.9591785045435997,1.0444620820590504,2158,0.9999743540667237,0.9999185072910833,0.9999968692943753,2158,0.010000000000000266,0.01,0.01,2158,0.5,0.5,0.5,2158
source_seed_condition,standard,303,electrode,standard,legacy_0p5_40,2158,8.294830005969974e-11,-2.0397025976874468e-08,2.0284942582329233e-08,2158,1.47776711178925e-07,9.775913856202578e-08,2.2826329626468578e-07,2158,1.491579252226917e-07,1.317430147196319e-07,1.660211950138546e-07,2158,2.8367867501982714e-08,1.0594232187219858e-08,1.0926876779132835e-07,2158,6.751658316108997e-09,3.161126509143907e-09,1.1446094432685037e-08,2158,0.19778796431745474,0.181803669828036,0.2163910313586743,2158,12.0,12.0,12.0,2158,0.11378320494224996,0.09012078449403567,0.1380299256642287,2158,0.252828789094384,0.22176391367808887,0.2842671810742491,2158,0.6308499673441026,0.5951416118054881,0.6677064531068074,2158,0.002538038619263286,0.0004040935141118806,0.008385093418165384,2158,7.672377489613146e-18,2.9679869903636647e-18,1.4374708809618674e-17,2158,1.0,1.0,1.0,2158,1.0,1.0,1.0000000000000002,2158,0.0999999999999963,0.1,0.1,2158,0.5,0.5,0.5,2158
source_seed_condition,standard,303,independent_rms,standard,legacy_0p5_40,2158,-1.6606284896951912e-10,-1.8534630457810927e-08,2.088961350976296e-08,2158,1.4713084891298034e-07,9.682012258593886e-08,2.1184074228131067e-07,2158,1.4953018503685117e-07,1.3132611087485202e-07,1.65695141163269e-07,2158,2.8367867501982714e-08,1.0594232187219858e-08,1.0926876779132835e-07,2158,6.751658316108997e-09,3.161126509143907e-09,1.1446094432685037e-08,2158,0.02832707735952907,0.020433773040687213,0.03664010037127697,2158,12.0,12.0,12.0,2158,0.11377183392488649,0.09787783459475202,0.13518375283179657,2158,0.25258644930426033,0.2292556310966696,0.2750530134698413,2158,0.6311340375638319,0.6094915340606053,0.6523885970971716,2158,0.0025076792070209374,0.000824539823265961,0.006601987771177136,2158,5.314062214658168e-18,2.2361188959775304e-18,9.254226711241523e-18,2158,1.0,1.0,1.0,2158,1.0,0.9999999999999999,1.0,2158,0.0999999999999963,0.1,0.1,2158,0.5,0.5,0.5,2158
source_seed_condition,limb_only,303,electrode,limb_only,legacy_0p5_40,2158,1.0041792101168708e-10,-2.2935047645541185e-08,2.0885542119218755e-08,2158,5.8536230764436014e-08,2.6253752949401132e-08,9.591336436187703e-08,2158,5.8381729244012976e-08,3.657280700508636e-08,7.699886594991767e-08,2158,1.5070745463039214e-08,4.173083287306775e-09,4.8007029872432964e-08,2158,5.296979094350065e-09,2.17957152482241e-09,1.154365329375991e-08,2158,0.36834520483908884,0.35303619853411067,0.40252669702825994,2158,12.0,12.0,12.0,2158,0.11378568494033856,0.07923594309172673,0.14989688935739648,2158,0.2529669167744407,0.21165420775176783,0.2992493330574913,2158,0.6306808550200071,0.5829328823924109,0.688044791798892,2158,0.002566543265213677,2.8127519400806978e-05,0.010384297706278512,2158,6.219795554078601e-18,1.0454190766266627e-18,1.3162894575672208e-17,2158,1.0,1.0,1.0,2158,1.0,1.0,1.0,2158,0.0999999999999963,0.1,0.1,2158,0.5,0.5,0.5,2158
source_seed_condition,limb_only,303,independent_rms,limb_only,legacy_0p5_40,2158,-1.9797433014076308e-10,-2.1353750208116435e-08,2.0681874230602443e-08,2158,5.8291393210436136e-08,2.374544294525549e-08,8.707033316568413e-08,2158,5.821104870336156e-08,3.8410078673223325e-08,7.785495803602771e-08,2158,1.5070745463039214e-08,4.173083287306775e-09,4.8007029872432964e-08,2158,5.296979094350065e-09,2.17957152482241e-09,1.154365329375991e-08,2158,0.02832707736514465,0.02043377265659333,0.03664010075527527,2158,12.0,12.0,12.0,2158,0.11387590648675511,0.09507667042107841,0.13892142419026254,2158,0.25252731388007543,0.22268897951117533,0.2842072470533106,2158,0.6310946617809652,0.6019243424214825,0.656025582099261,2158,0.0025021178522047927,0.0006802724042769808,0.008481900472954215,2158,5.314062214658168e-18,2.2361188959775304e-18,9.254226711241523e-18,2158,1.0,1.0,1.0,2158,1.0,0.9999999999999999,1.0,2158,0.0999999999999963,0.1,0.1,2158,0.5,0.5,0.5,2158
source_seed_condition,precordial_only,303,electrode,precordial_only,legacy_0p5_40,2158,6.863533154967057e-11,-2.3863618336801454e-08,2.2497608337004143e-08,2158,5.8467494187095736e-08,1.5507337636222474e-08,1.0190100319107387e-07,2158,5.846760974412935e-08,3.3146340783218875e-08,8.006760054968254e-08,2158,8.246916399929085e-09,2.9590295824397048e-09,2.2313812741091506e-08,2158,4.659204961284526e-09,1.4662142762769718e-09,1.1485941579520451e-08,2158,0.028584873666479868,0.012819404927267632,0.050931156424687075,2158,6.0,6.0,6.0,2158,0.11369234637612544,0.09142324829314773,0.13956315239555556,2158,0.2524089431072415,0.2196034732624517,0.28632827582655457,2158,0.6313914003999913,0.5893575014044481,0.6670012052195461,2158,0.002507310116643513,0.00019148511957212637,0.0078214544703327,2158,3.6785870025159894e-18,1.117600002952727e-18,7.691850745534256e-18,2158,1.0,1.0,1.0,2158,1.0,0.9999999999999998,1.0,2158,0.0999999999999963,0.1,0.1,2158,0.5,0.5,0.5,2158
source_seed_condition,precordial_only,303,independent_rms,precordial_only,legacy_0p5_40,2158,4.478866181732898e-11,-2.554488760418452e-08,2.7450685403634007e-08,2158,5.845892514953507e-08,1.9648746629741254e-08,9.603715867001483e-08,2158,5.850807284070366e-08,3.564069217532051e-08,8.524669858900324e-08,2158,8.246916399929085e-09,2.9590295824397048e-09,2.2313812741091506e-08,2158,4.659204961284526e-09,1.4662142762769718e-09,1.1485941579520451e-08,2158,0.028366481144714423,0.011899106941520474,0.048977656437254664,2158,6.0,6.0,6.0,2158,0.11355673589500567,0.09329774665311565,0.13465114842446907,2158,0.2527075078752811,0.2232599507031323,0.28152213290037537,2158,0.6312153199159969,0.5887527265890784,0.6638888938107879,2158,0.002520436313716253,0.0003818106780489889,0.0077490269717762515,2158,5.314062214658168e-18,2.2361188959775304e-18,9.254226711241523e-18,2158,1.0,1.0,1.0,2158,1.0,0.9999999999999999,1.0,2158,0.0999999999999963,0.1,0.1,2158,0.5,0.5,0.5,2158
source_seed_condition,random_00,303,electrode,randomized,legacy_0p5_40,2158,-7.375421331335167e-11,-1.7396214395502696e-08,2.1782764925949506e-08,2158,5.8313053964977204e-08,2.9059821216037562e-08,9.102142861650009e-08,2158,5.8277784777756576e-08,4.222682470356176e-08,7.302379856355401e-08,2158,1.0736742821438901e-08,4.236673147123254e-09,3.053425583533646e-08,2158,5.419019412063799e-09,2.387057970770216e-09,1.1594281683531989e-08,2158,0.25067583949325123,0.23399978512299469,0.2694376932208107,2158,12.0,12.0,12.0,2158,0.1137377927962556,0.08954657645487692,0.13997915308405226,2158,0.25274583400853967,0.22143512800958767,0.2853104218221603,2158,0.6309442176051304,0.5910517385865705,0.6663640028743261,2158,0.002572155590076236,0.0003524196643171016,0.008760269578213836,2158,7.726725784004345e-18,2.8780270159990894e-18,1.5765688172527934e-17,2158,1.0,1.0,1.0,2158,1.0,0.9999999999999998,1.0,2158,0.0999999999999963,0.1,0.1,2158,0.5,0.5,0.5,2158
source_seed_condition,random_00,303,independent_rms,randomized,legacy_0p5_40,2158,-6.883734465796878e-11,-1.8794127122865772e-08,1.880422837170246e-08,2158,5.8091371559047095e-08,2.939682275382438e-08,8.59081552562202e-08,2158,5.8317420439412854e-08,4.061408809263867e-08,7.5599066562404e-08,2158,1.0736742821438901e-08,4.236673147123254e-09,3.053425583533646e-08,2158,5.419019412063799e-09,2.387057970770216e-09,1.1594281683531989e-08,2158,0.028327077364882613,0.02043377320515016,0.03664010098567722,2158,12.0,12.0,12.0,2158,0.11376959338427349,0.09779285311402348,0.13483209590622808,2158,0.2525908397101617,0.22959641852004412,0.2750381437637286,2158,0.6311304706956669,0.6092788584607101,0.6524493939924505,2158,0.002509096209898551,0.0008435066648570487,0.0067230851393886345,2158,5.314062214658168e-18,2.2361188959775304e-18,9.254226711241523e-18,2158,1.0,1.0,1.0,2158,1.0,0.9999999999999999,1.0,2158,0.0999999999999963,0.1,0.1,2158,0.5,0.5,0.5,2158
source_seed_condition,random_01,303,electrode,randomized,legacy_0p5_40,2158,-1.5068930948517724e-10,-1.8628724710762454e-08,2.1196934064262272e-08,2158,5.809118637014241e-08,2.7736641428077746e-08,9.728093530725346e-08,2158,5.833565821112172e-08,4.1163630726259726e-08,7.784263722498963e-08,2158,1.0956822222493714e-08,4.009469079907315e-09,3.064695313276987e-08,2158,5.534257509163409e-09,2.2093765361373114e-09,1.2855700528179745e-08,2158,0.26384354709901253,0.245077374919517,0.28636750837694447,2158,12.0,12.0,12.0,2158,0.11373137043806635,0.08986972102849418,0.13958521757437986,2158,0.2528050574875941,0.2164056182720428,0.2880079347052448,2158,0.6309144032897209,0.5806609803565113,0.6659799725593623,2158,0.0025491687846195886,0.0004104471082820389,0.00948693962878695,2158,7.578610991581735e-18,2.0986837273595997e-18,1.5069070923195852e-17,2158,1.0,1.0,1.0,2158,1.0,1.0,1.0000000000000002,2158,0.0999999999999963,0.1,0.1,2158,0.5,0.5,0.5,2158
source_seed_condition,random_01,303,independent_rms,randomized,legacy_0p5_40,2158,9.846332992344561e-12,-1.940854017409907e-08,1.842034310949732e-08,2158,5.846976291663115e-08,2.9641986643014206e-08,8.951104746302008e-08,2158,5.8392507925430674e-08,4.217680071860741e-08,7.69733716765586e-08,2158,1.0956822222493714e-08,4.009469079907315e-09,3.064695313276987e-08,2158,5.534257509163409e-09,2.2093765361373114e-09,1.2855700528179745e-08,2158,0.028327077370923506,0.020433772876137634,0.036640101081249044,2158,12.0,12.0,12.0,2158,0.11376531441589545,0.09773025500797154,0.13558383627687076,2158,0.25259296376327184,0.22893770629145258,0.2746748573201324,2158,0.6311338686806228,0.6095880817703542,0.6523156599518607,2158,0.00250785314020984,0.0008344006831389923,0.006461230299775123,2158,5.314062214658168e-18,2.2361188959775304e-18,9.254226711241523e-18,2158,1.0,1.0,1.0,2158,1.0,0.9999999999999999,1.0,2158,0.0999999999999963,0.1,0.1,2158,0.5,0.5,0.5,2158
source_seed_condition,random_02,303,electrode,randomized,legacy_0p5_40,2158,7.592504956984633e-11,-1.690042230234733e-08,1.6156763755683198e-08,2158,5.8658810976301016e-08,2.8655639638941466e-08,9.191360739180254e-08,2158,5.8458585429109456e-08,4.179931067938014e-08,7.757681608211442e-08,2158,1.0848969541195694e-08,4.30776464040511e-09,3.349216817946968e-08,2158,5.4729000468878024e-09,2.3847000822372673e-09,1.1692941471859256e-08,2158,0.29551916685350443,0.27591603621170563,0.32553194892807,2158,12.0,12.0,12.0,2158,0.113909269598318,0.09033875116679257,0.14777762386223894,2158,0.2528336337122873,0.21878916055093772,0.2867784497074185,2158,0.6306919231738387,0.5893456136236719,0.6710031807468024,2158,0.0025651735155553914,0.00039201256853997255,0.010630152735156563,2158,7.670400855409343e-18,2.381163109968744e-18,1.606259069433842e-17,2158,1.0,1.0,1.0,2158,1.0,0.9999999999999998,1.0000000000000002,2158,0.0999999999999963,0.1,0.1,2158,0.5,0.5,0.5,2158
source_seed_condition,random_02,303,independent_rms,randomized,legacy_0p5_40,2158,-2.3552082219388896e-11,-1.8773869013524533e-08,2.0997502466200655e-08,2158,5.8235034504864296e-08,2.6755129667321853e-08,9.018379110159458e-08,2158,5.816541503866366e-08,4.2854626514099436e-08,7.890440656410647e-08,2158,1.0848969541195694e-08,4.30776464040511e-09,3.349216817946968e-08,2158,5.4729000468878024e-09,2.3847000822372673e-09,1.1692941471859256e-08,2158,0.028327077367837565,0.02043377294759835,0.0366401008009271,2158,12.0,12.0,12.0,2158,0.11377012557736574,0.09773165120938142,0.1349258680277282,2158,0.25258354540105404,0.22939311673332105,0.2748462110833799,2158,0.6311392024593211,0.6092242781762129,0.6529099293494119,2158,0.0025071265622592137,0.000819195349119277,0.006539020310862243,2158,5.314062214658168e-18,2.2361188959775304e-18,9.254226711241523e-18,2158,1.0,1.0,1.0,2158,1.0,0.9999999999999999,1.0,2158,0.0999999999999963,0.1,0.1,2158,0.5,0.5,0.5,2158
source_seed_condition,random_03,303,electrode,randomized,legacy_0p5_40,2158,2.0356795306022433e-10,-1.811233168971244e-08,2.0809727658489734e-08,2158,5.83074457208023e-08,2.5366711398078223e-08,9.268014267149738e-08,2158,5.8573809342312895e-08,3.9208615021379956e-08,7.674848490069053e-08,2158,1.0902616685774373e-08,4.3910019786306906e-09,3.089567894581685e-08,2158,5.464393766858079e-09,2.260283911450128e-09,1.1028916370070068e-08,2158,0.2925659455707765,0.2708069601707243,0.3186258972933198,2158,12.0,12.0,12.0,2158,0.11370238529086567,0.08667969071726073,0.13930847887709738,2158,0.25275306365955674,0.21807430831149924,0.2849136116097132,2158,0.6310095168591728,0.5933995337106781,0.6679080576585579,2158,0.0025350341904041528,0.0004072287733865602,0.009115847304069403,2158,7.671141978453121e-18,3.0900653510261985e-18,1.467962980137817e-17,2158,1.0,1.0,1.0,2158,1.0,1.0,1.0000000000000002,2158,0.0999999999999963,0.1,0.1,2158,0.5,0.5,0.5,2158
source_seed_condition,random_03,303,independent_rms,randomized,legacy_0p5_40,2158,1.1481381190037723e-10,-1.8844294330875657e-08,1.7902288074409432e-08,2158,5.850342816228154e-08,2.6281846032816247e-08,9.177441206986714e-08,2158,5.8395866199649576e-08,4.2340190020695445e-08,7.691459735781336e-08,2158,1.0902616685774373e-08,4.3910019786306906e-09,3.089567894581685e-08,2158,5.464393766858079e-09,2.260283911450128e-09,1.1028916370070068e-08,2158,0.02832707736042047,0.020433772792450206,0.03664010118528872,2158,12.0,12.0,12.0,2158,0.11377365771639844,0.09788994449170353,0.13535586511925563,2158,0.25257568473572173,0.22950776802644474,0.2750679485927991,2158,0.6311427595937332,0.6093887376334062,0.6521822196830904,2158,0.002507897954147068,0.0008402309111547768,0.006638839546893656,2158,5.314062214658168e-18,2.2361188959775304e-18,9.254226711241523e-18,2158,1.0,1.0,1.0,2158,1.0,0.9999999999999999,1.0,2158,0.0999999999999963,0.1,0.1,2158,0.5,0.5,0.5,2158
source_seed_condition,random_04,303,electrode,randomized,legacy_0p5_40,2158,-3.4639327937241893e-11,-1.7461837844192474e-08,1.7662312292357835e-08,2158,5.832623376143437e-08,3.175590279624885e-08,9.564993774802133e-08,2158,5.825902304416261e-08,4.157149113837022e-08,7.484526420853399e-08,2158,1.0814717649861784e-08,4.440029554044009e-09,3.181268738497331e-08,2158,5.468230884413864e-09,2.24093284653603e-09,1.3866101932779676e-08,2158,0.2565099337564177,0.2349846153927735,0.2751712709095612,2158,12.0,12.0,12.0,2158,0.11368958190245332,0.0913219207801887,0.138798257523658,2158,0.2527423319534211,0.218158907411758,0.295612508764077,2158,0.6310237143175061,0.5928137629145409,0.6640122317521368,2158,0.002544371826620054,0.00044685818244747115,0.009135369317304874,2158,7.657778120484003e-18,2.6583601980553535e-18,1.3386054971518472e-17,2158,1.0,1.0,1.0,2158,1.0,1.0,1.0,2158,0.0999999999999963,0.1,0.1,2158,0.5,0.5,0.5,2158
source_seed_condition,random_04,303,independent_rms,randomized,legacy_0p5_40,2158,9.685013484921061e-11,-1.9069593533016066e-08,2.2621926540364015e-08,2158,5.853136176210772e-08,3.0926090133220896e-08,8.482540003740269e-08,2158,5.8420576124210196e-08,3.939297066324343e-08,7.824676906409422e-08,2158,1.0814717649861784e-08,4.440029554044009e-09,3.181268738497331e-08,2158,5.468230884413864e-09,2.24093284653603e-09,1.3866101932779676e-08,2158,0.028327077365041805,0.020433773008237944,0.03664010130093872,2158,12.0,12.0,12.0,2158,0.11376798060680934,0.0977490026802643,0.13574927614052612,2158,0.25259733839758436,0.22932824583218087,0.2754846639489125,2158,0.6311267768606036,0.6091066673686892,0.652766502188407,2158,0.00250790413500064,0.0008440262477653326,0.006471870198926838,2158,5.314062214658168e-18,2.2361188959775304e-18,9.254226711241523e-18,2158,1.0,1.0,1.0,2158,1.0,0.9999999999999999,1.0,2158,0.0999999999999963,0.1,0.1,2158,0.5,0.5,0.5,2158
source_seed_condition,band_0p05_5,303,electrode,standard,band_0p05_5,2158,1.654334204229831e-10,-2.0030613360685182e-08,2.1877255516612237e-08,2158,5.867929171049332e-08,2.4647926366583306e-08,9.051523086611724e-08,2158,5.8490562315082264e-08,3.965781658621381e-08,7.755977193824037e-08,2158,1.0964900747894671e-08,4.405877008056431e-09,3.909143733761629e-08,2158,5.4967468049030484e-09,2.155895269873537e-09,1.2368716433835552e-08,2158,0.22776345452064864,0.18399564638499563,0.2779952193936166,2158,12.0,12.0,12.0,2158,0.9835747468965188,0.9484975242916637,0.9951815283320764,2158,0.0157652175347374,0.0043934855092827305,0.048317920034161264,2158,0.0005542150597502107,2.406114273421826e-05,0.003072892038919048,2158,0.0001058205089964787,3.096150605624116e-06,0.0005909734920551614,2158,0.019350122200332883,0.0049310313877410986,0.04522355260767047,2158,1.0007356445332192,0.8216086760268977,1.22492518611027,2158,0.9972927898852142,0.9856016057722412,0.9998443287241241,2158,0.010000000000000266,0.01,0.01,2158,0.04999999999999815,0.05,0.05,2158
source_seed_condition,band_0p05_5,303,independent_rms,standard,band_0p05_5,2158,-1.2049988750839913e-10,-2.3426490622487846e-08,2.2247732769485555e-08,2158,5.816341066938473e-08,2.5758858157587383e-08,8.82148842862307e-08,2158,5.813464710098604e-08,4.277501020055752e-08,7.268477197897028e-08,2158,1.0964900747894671e-08,4.405877008056431e-09,3.909143733761629e-08,2158,5.4967468049030484e-09,2.155895269873537e-09,1.2368716433835552e-08,2158,0.07979104589688597,0.05441986520105684,0.10643827226223465,2158,12.0,12.0,12.0,2158,0.9836325526725713,0.964942485264435,0.9941686377247748,2158,0.01570387166485812,0.005258050407974605,0.03434111006436805,2158,0.0005571514112196413,9.237532726383461e-05,0.001709077024700227,2158,0.00010642425135166585,1.6615905668498953e-05,0.00032924873540309067,2158,0.015964048041735672,0.006028477968932995,0.02916547173836852,2158,0.9985248343027331,0.8674269232643383,1.1193044588665393,2158,0.9973157756252486,0.9918665966241335,0.999651605934269,2158,0.010000000000000266,0.01,0.01,2158,0.04999999999999815,0.05,0.05,2158
source_seed_condition,band_5_15,303,electrode,standard,band_5_15,2158,2.485719737659167e-10,-2.116665717810468e-08,2.1899694452318372e-08,2158,5.8596070599304735e-08,3.013930260920006e-08,9.549655466400964e-08,2158,5.857115207052588e-08,4.180794199726279e-08,7.434605109324366e-08,2158,1.0895970878111035e-08,3.810373113743376e-09,3.181111626258069e-08,2158,5.532114351727552e-09,2.223137106367349e-09,1.247275181982839e-08,2158,0.2142611267538678,0.1823534452176024,0.2583910355118157,2158,12.0,12.0,12.0,2158,0.0022466517957273027,0.00046347881131368607,0.00782533899162183,2158,0.989520602783975,0.9720992215553276,0.9965805479218006,2158,0.008118528313503341,0.002022928985832337,0.02542626970053126,2158,0.00011421710679447617,5.724824851423984e-06,0.0005756209952468847,2158,0.0013987849479219464,0.0004007817240944899,0.0033479975464819327,2158,1.0000900608015413,0.8517225392083821,1.1567449029978918,2158,0.9999930770951044,0.9999639589524236,0.9999995024584909,2158,0.010000000000000266,0.01,0.01,2158,5.0,5.0,5.0,2158
source_seed_condition,band_5_15,303,independent_rms,standard,band_5_15,2158,8.5515253010391e-11,-2.0392494119924116e-08,1.836250371262586e-08,2158,5.855905136639856e-08,2.8208827274056603e-08,8.473577395307075e-08,2158,5.8570530418069256e-08,4.0339269702371894e-08,7.630349863063657e-08,2158,1.0895970878111035e-08,3.810373113743376e-09,3.181111626258069e-08,2158,5.532114351727552e-09,2.223137106367349e-09,1.247275181982839e-08,2158,0.056272534194205304,0.038925260625305304,0.07605345923839663,2158,12.0,12.0,12.0,2158,0.0022524084537023,0.0006895198376881956,0.005881042980493476,2158,0.9894895447402438,0.9804285046657728,0.9949904607375303,2158,0.008139785290935042,0.0031715376127678793,0.015913161829480667,2158,0.00011826151512025466,1.4279516238623804e-05,0.0004043727811495352,2158,0.0011484146674984527,0.0004515229144021684,0.0019229272300716016,2158,0.9995255736556229,0.9118546429967742,1.1267962977365078,2158,0.9999931222291798,0.999980256500902,0.9999989760804161,2158,0.010000000000000266,0.01,0.01,2158,5.0,5.0,5.0,2158
source_seed_condition,band_15_40,303,electrode,standard,band_15_40,2158,-5.1238053119553897e-11,-1.80055068676696e-08,1.7993872182184443e-08,2158,5.834944882409417e-08,2.644148189290263e-08,8.721293731639435e-08,2158,5.824842153252617e-08,4.145772436459083e-08,7.530387691190299e-08,2158,1.087275523496136e-08,3.6915577608117963e-09,3.283882018750836e-08,2158,5.4841024699016455e-09,2.5087566866593933e-09,1.1649881685910319e-08,2158,0.20194502546200743,0.17804477415146636,0.2307232509832644,2158,12.0,12.0,12.0,2158,0.00010796530755877253,9.771902041502438e-06,0.0005663335319782141,2158,0.0010665201005976897,0.00023289372558993974,0.003454107646489499,2158,0.9955191215761118,0.9883201640731121,0.9983384248317639,2158,0.0033063930157327366,0.0008351208001873,0.009462060789336611,2158,0.0008582645011770042,0.00023211297628093896,0.0020697929655080793,2158,1.0000056034094205,0.925988413687356,1.1142090125451096,2158,0.9999989496812018,0.9999944445471609,0.9999999292375094,2158,0.010000000000000266,0.01,0.01,2158,15.0,15.0,15.0,2158
source_seed_condition,band_15_40,303,independent_rms,standard,band_15_40,2158,-2.45201143830034e-10,-1.7700261543134424e-08,1.8980990559880195e-08,2158,5.83471991035525e-08,3.045973073767527e-08,8.662668626868708e-08,2158,5.83971324819608e-08,4.2287791046646817e-08,7.551456704391057e-08,2158,1.087275523496136e-08,3.6915577608117963e-09,3.283882018750836e-08,2158,5.4841024699016455e-09,2.5087566866593933e-09,1.1649881685910319e-08,2158,0.03567723100611161,0.024988148203907812,0.048857192977563295,2158,12.0,12.0,12.0,2158,0.00010863774016902431,2.1314239322726593e-05,0.00032840015060322093,2158,0.001063247650361253,0.00035802984542726205,0.0025528239263691733,2158,0.9955147646788356,0.9912655745274751,0.9977897877159042,2158,0.0033133499306334936,0.0012271965673953016,0.007632848226110086,2158,0.0007103285443916532,0.0003146351942124466,0.0012173389368153123,2158,0.9996324090431163,0.9360479323676323,1.0664371338900955,2158,0.9999989453825552,0.9999970948871079,0.9999998000827296,2158,0.010000000000000266,0.01,0.01,2158,15.0,15.0,15.0,2158
source_seed_condition,band_0p5_40,303,electrode,standard,band_0p5_40,2158,-6.142264151203732e-11,-2.222075100080238e-08,1.6055155463891696e-08,2158,5.864671641122342e-08,2.849461999687719e-08,8.950721230860381e-08,2158,5.8420877629092423e-08,3.908858836609852e-08,7.838659854542129e-08,2158,1.0873245541098429e-08,3.554465639630764e-09,3.496654683403687e-08,2158,5.482301158549158e-09,2.4780046858596495e-09,1.1579380601842683e-08,2158,0.1977003305511172,0.17957241031230753,0.21949306032232588,2158,12.0,12.0,12.0,2158,0.11280312478369686,0.08964132238984081,0.13580365741230968,2158,0.2531443534807012,0.21777187623950106,0.2819075290105521,2158,0.6319187007086097,0.5975774289729582,0.6737455453036537,2158,0.0021338210269920017,0.0005263147854153418,0.006149406937425184,2158,0.00532953889291269,0.0012075807282909165,0.013263993277669998,2158,1.0001170156237253,0.9280441806050139,1.092767492078788,2158,0.9999742651458698,0.9998499565315846,0.9999988107887163,2158,0.010000000000000266,0.01,0.01,2158,0.5,0.5,0.5,2158
source_seed_condition,band_0p5_40,303,independent_rms,standard,band_0p5_40,2158,1.529389014015219e-11,-2.0485220956561876e-08,1.7070987656559428e-08,2158,5.8285369309461764e-08,2.7962149928839608e-08,8.761170633420079e-08,2158,5.829847263038209e-08,4.3021001872034503e-08,7.679874336474768e-08,2158,1.0873245541098429e-08,3.554465639630764e-09,3.496654683403687e-08,2158,5.482301158549158e-09,2.4780046858596495e-09,1.1579380601842683e-08,2158,0.028368471512668917,0.01957418443007494,0.037659876030773094,2158,12.0,12.0,12.0,2158,0.11262843324891553,0.09705011071975357,0.129060840660955,2158,0.2531058258162259,0.23208596950265503,0.2751840921414752,2158,0.6321274543965694,0.6043850729804404,0.6565091513250882,2158,0.002138286538288093,0.0008063376980817103,0.004780914641574383,2158,0.0043771446112859476,0.0017923337856178064,0.008544672587592995,2158,0.9994495709792496,0.9551297146117115,1.0462402682477023,2158,0.9999746936767888,0.9999078270454779,0.9999959739791401,2158,0.010000000000000266,0.01,0.01,2158,0.5,0.5,0.5,2158
source_seed_condition,standard,404,electrode,standard,legacy_0p5_40,2158,3.199913810196002e-11,-1.9949019684709613e-08,1.863180469277094e-08,2158,1.4837351441761402e-07,9.827734270828614e-08,2.2049755443731556e-07,2158,1.4932349869956496e-07,1.2877922372922512e-07,1.6543111414080158e-07,2158,2.7780947277410492e-08,9.058616753752329e-09,8.997032218823564e-08,2158,6.714454330294905e-09,3.6433680702022993e-09,1.2406881999930056e-08,2158,0.19755142050504795,0.18121220445838812,0.22115738653931266,2158,12.0,12.0,12.0,2158,0.11368620428115322,0.09192800619865761,0.13984658304923608,2158,0.2524753150939942,0.222096541885764,0.295839000410383,2158,0.6313177122868663,0.592344605950746,0.6662586298528294,2158,0.0025207683379855914,0.0005556748594607811,0.008778901402620153,2158,7.640366237931355e-18,2.749530325049722e-18,1.595428214465675e-17,2158,1.0,1.0,1.0,2158,1.0,1.0,1.0,2158,0.0999999999999963,0.1,0.1,2158,0.5,0.5,0.5,2158
source_seed_condition,standard,404,independent_rms,standard,legacy_0p5_40,2158,-4.028713958876674e-11,-2.124414426556672e-08,1.989233208537758e-08,2158,1.469400671047523e-07,9.185440230652375e-08,2.1757716694992268e-07,2158,1.4929982355225226e-07,1.3255346686946723e-07,1.6810699676739205e-07,2158,2.7780947277410492e-08,9.058616753752329e-09,8.997032218823564e-08,2158,6.714454330294905e-09,3.6433680702022993e-09,1.2406881999930056e-08,2158,0.028267825775735233,0.02068559501052266,0.03792827819563258,2158,12.0,12.0,12.0,2158,0.11360360397829869,0.09479474889049674,0.13005353869256417,2158,0.25255736603041845,0.22407682086679537,0.2748396171476834,2158,0.6313347587936368,0.6088184290877195,0.659887010521939,2158,0.00250427119764342,0.0009387584648081523,0.005315979679459274,2158,5.312133984762386e-18,2.222295650611632e-18,9.350512481249114e-18,2158,1.0,1.0,1.0,2158,1.0,0.9999999999999999,1.0,2158,0.0999999999999963,0.1,0.1,2158,0.5,0.5,0.5,2158
source_seed_condition,limb_only,404,electrode,limb_only,legacy_0p5_40,2158,-1.8523319302136126e-10,-2.3274070468796135e-08,2.4839307855132743e-08,2158,5.8452300035731816e-08,2.802262955015067e-08,9.474690187971646e-08,2158,5.831145610730567e-08,3.3126587695164744e-08,8.210351865045595e-08,2158,1.4802487135399494e-08,4.714413391610625e-09,5.1934924363038166e-08,2158,5.3218049165510456e-09,2.0920445244513257e-09,1.1882000527021528e-08,2158,0.3681896242306054,0.35203606687709355,0.39947958799831523,2158,12.0,12.0,12.0,2158,0.11370054761051565,0.08430277983047164,0.15155958061382513,2158,0.2523774149138292,0.21082134196546568,0.31226940481181137,2158,0.6314024864591572,0.5770519369934781,0.6820403311309511,2158,0.0025195510164980144,0.00011955803684186896,0.0125136990658666,2158,6.180062167120384e-18,1.5595900501194065e-18,1.405152343114235e-17,2158,1.0,1.0,1.0,2158,1.0,0.9999999999999998,1.0000000000000002,2158,0.0999999999999963,0.1,0.1,2158,0.5,0.5,0.5,2158
source_seed_condition,limb_only,404,independent_rms,limb_only,legacy_0p5_40,2158,4.472540140244931e-11,-2.4413217010705144e-08,2.2048793942805098e-08,2158,5.846774363682034e-08,2.3775738711151462e-08,9.276463153184977e-08,2158,5.834913226792148e-08,3.87263572321217e-08,7.786803735143621e-08,2158,1.4802487135399494e-08,4.714413391610625e-09,5.1934924363038166e-08,2158,5.3218049165510456e-09,2.0920445244513257e-09,1.1882000527021528e-08,2158,0.028267825770274962,0.02068559527647636,0.03792827807854113,2158,12.0,12.0,12.0,2158,0.1136378636568362,0.0932203614188081,0.13413514192022363,2158,0.2525500265240476,0.22351465167565684,0.2812141522529556,2158,0.6313051371872124,0.6006537882455839,0.6613111236404395,2158,0.002506972631902864,0.000580927388709922,0.00633948499646174,2158,5.312133984762386e-18,2.222295650611632e-18,9.350512481249114e-18,2158,1.0,1.0,1.0,2158,1.0,0.9999999999999999,1.0,2158,0.0999999999999963,0.1,0.1,2158,0.5,0.5,0.5,2158
source_seed_condition,precordial_only,404,electrode,precordial_only,legacy_0p5_40,2158,-2.7078258468009954e-10,-2.343772503753381e-08,2.5085336720260365e-08,2158,5.833101167715195e-08,1.5476910056411645e-08,9.810054812930957e-08,2158,5.8432577312020176e-08,3.283017413480138e-08,8.44714840297911e-08,2158,8.205231943249812e-09,2.5354759517689038e-09,2.2236670156729418e-08,2158,4.70748736222644e-09,1.3243016700281153e-09,1.161246383316373e-08,2158,0.028255192517688984,0.012860746885347952,0.04999797055306574,2158,6.0,6.0,6.0,2158,0.1136943419688808,0.092284627289841,0.13952623114452653,2158,0.252814147315757,0.2201741430727131,0.2849882283903324,2158,0.630974707397809,0.5973436026861522,0.6702477591827962,2158,0.002516803317553004,0.00020759263046776002,0.006818988790102965,2158,3.6933256410043255e-18,7.797950250597033e-19,6.953459545375322e-18,2158,1.0,1.0,1.0,2158,1.0,1.0,1.0,2158,0.0999999999999963,0.1,0.1,2158,0.5,0.5,0.5,2158
source_seed_condition,precordial_only,404,independent_rms,precordial_only,legacy_0p5_40,2158,8.311744164616952e-11,-2.8883182466069056e-08,2.5626678334016397e-08,2158,5.857214487226738e-08,1.2913627500665825e-08,9.659160582486948e-08,2158,5.843998171554443e-08,3.5128982389665e-08,8.512790117265467e-08,2158,8.205231943249812e-09,2.5354759517689038e-09,2.2236670156729418e-08,2158,4.70748736222644e-09,1.3243016700281153e-09,1.161246383316373e-08,2158,0.0282959093831893,0.012302190022058044,0.05043838376267773,2158,6.0,6.0,6.0,2158,0.11352980876051284,0.08942175954330966,0.13242167603748867,2158,0.25258633003146047,0.22133786290283286,0.28611653248721397,2158,0.6313845406035725,0.6020926149282099,0.6644685003917629,2158,0.002499320604453713,0.000345982840102333,0.008346262532582839,2158,5.312133984762386e-18,2.222295650611632e-18,9.350512481249114e-18,2158,1.0,1.0,1.0,2158,1.0,0.9999999999999999,1.0,2158,0.0999999999999963,0.1,0.1,2158,0.5,0.5,0.5,2158
source_seed_condition,random_00,404,electrode,randomized,legacy_0p5_40,2158,-1.508937322195495e-10,-2.0492775497970492e-08,1.7600784342931662e-08,2158,5.8378332662881084e-08,2.491453798825205e-08,8.579253218954364e-08,2158,5.838928781193344e-08,4.30753921421001e-08,7.685010317004526e-08,2158,1.082120763834921e-08,4.110031282260636e-09,3.274874837630923e-08,2158,5.528709466948083e-09,2.3408047376358426e-09,1.1883760715945897e-08,2158,0.2503998866733997,0.2345610021126927,0.2699558560133668,2158,12.0,12.0,12.0,2158,0.1136804664276755,0.09257657507860279,0.1397167351891496,2158,0.25250397409846476,0.2210590855818068,0.2901053095688049,2158,0.6313031146365307,0.5953702180866267,0.6643180527490087,2158,0.0025124448373303903,0.0004616633822349883,0.0091747270973798,2158,7.652536957953634e-18,2.9652170532316617e-18,1.5435427690185254e-17,2158,1.0,1.0,1.0,2158,1.0,0.9999999999999998,1.0000000000000002,2158,0.0999999999999963,0.1,0.1,2158,0.5,0.5,0.5,2158
source_seed_condition,random_00,404,independent_rms,randomized,legacy_0p5_40,2158,-5.146710583293957e-11,-2.3059751099030072e-08,1.944310206577307e-08,2158,5.813677748376798e-08,2.987821723365869e-08,9.236748610419454e-08,2158,5.840101251696277e-08,4.289424815340226e-08,7.505921928441239e-08,2158,1.082120763834921e-08,4.110031282260636e-09,3.274874837630923e-08,2158,5.528709466948083e-09,2.3408047376358426e-09,1.1883760715945897e-08,2158,0.028267825777738283,0.020685595120706713,0.03792827866176444,2158,12.0,12.0,12.0,2158,0.1136042372304385,0.09478874272800264,0.13010344874505303,2158,0.2525678160475751,0.2237763694570687,0.2751498996556966,2158,0.6313248434049245,0.6080059380978137,0.6606536087233863,2158,0.002503103317063402,0.0009417295140174147,0.005305060073153503,2158,5.312133984762386e-18,2.222295650611632e-18,9.350512481249114e-18,2158,1.0,1.0,1.0,2158,1.0,0.9999999999999999,1.0,2158,0.0999999999999963,0.1,0.1,2158,0.5,0.5,0.5,2158
source_seed_condition,random_01,404,electrode,randomized,legacy_0p5_40,2158,-1.137594940671919e-10,-1.8647627457842953e-08,1.7034755945128354e-08,2158,5.85070283264191e-08,3.1312996640053825e-08,8.907330695251403e-08,2158,5.834945611226074e-08,4.1795511052100665e-08,7.676284496938024e-08,2158,1.0793139021510614e-08,4.7973680658519624e-09,3.5266820403016526e-08,2158,5.460373169688742e-09,2.3890052477060887e-09,1.1427416441469862e-08,2158,0.2636370346128563,0.24261494687129437,0.2956822019992881,2158,12.0,12.0,12.0,2158,0.11356895780145218,0.0914082033436187,0.13723145973019357,2158,0.2528115893945932,0.21916420778963644,0.2943959362325363,2158,0.6310953063686595,0.5896722585798135,0.6693617708611709,2158,0.0025241464352948042,0.0004435370022385731,0.007781006693876323,2158,7.668636380990875e-18,3.20750073612733e-18,1.6158990055945788e-17,2158,1.0,1.0,1.0,2158,1.0,1.0,1.0000000000000002,2158,0.0999999999999963,0.1,0.1,2158,0.5,0.5,0.5,2158
source_seed_condition,random_01,404,independent_rms,randomized,legacy_0p5_40,2158,-9.02776010122557e-11,-1.9276805326961436e-08,1.955238929706691e-08,2158,5.84502061678662e-08,2.6456216772885455e-08,8.886867775004248e-08,2158,5.844200105544516e-08,4.224892435900074e-08,7.403718704779294e-08,2158,1.0793139021510614e-08,4.7973680658519624e-09,3.5266820403016526e-08,2158,5.460373169688742e-09,2.3890052477060887e-09,1.1427416441469862e-08,2158,0.02826782577498198,0.020685595444967852,0.037928278942526455,2158,12.0,12.0,12.0,2158,0.11360923317634093,0.09458582411181907,0.12988810154829278,2158,0.2525450296656387,0.2235542873559617,0.27485276244494955,2158,0.6313427879328558,0.6084128007425651,0.6599017118761881,2158,0.002502949225164528,0.0009340515061847771,0.005249700007072449,2158,5.312133984762386e-18,2.222295650611632e-18,9.350512481249114e-18,2158,1.0,1.0,1.0,2158,1.0,0.9999999999999999,1.0,2158,0.0999999999999963,0.1,0.1,2158,0.5,0.5,0.5,2158
source_seed_condition,random_02,404,electrode,randomized,legacy_0p5_40,2158,1.0816851187562516e-10,-1.609118424401995e-08,2.1008555587568836e-08,2158,5.856354365431186e-08,2.6675934350350872e-08,8.815526442162991e-08,2158,5.843191668013734e-08,4.340927262092009e-08,7.483964026278045e-08,2158,1.0937968398388781e-08,4.394358282509134e-09,3.048036797614234e-08,2158,5.44260467420391e-09,2.4521619962381395e-09,1.1994309472837553e-08,2158,0.2959027330040609,0.2728607789233771,0.3241514380297008,2158,12.0,12.0,12.0,2158,0.11368620646163392,0.0915381293348079,0.14074912907728987,2158,0.2523910504409698,0.21784214206636277,0.2946117880343427,2158,0.6314065406633446,0.5911697588738866,0.6737702389819398,2158,0.0025162024340523808,0.0004386647174099238,0.009296747156953385,2158,7.652290968725399e-18,2.485841995025279e-18,1.566162308693318e-17,2158,1.0,1.0,1.0,2158,1.0,0.9999999999999998,1.0000000000000002,2158,0.0999999999999963,0.1,0.1,2158,0.5,0.5,0.5,2158
source_seed_condition,random_02,404,independent_rms,randomized,legacy_0p5_40,2158,-3.355844958765543e-11,-1.8576855464769306e-08,1.653270006681189e-08,2158,5.836598638441749e-08,2.88902946010694e-08,9.539939327396496e-08,2158,5.8308191396386193e-08,4.177365831026236e-08,7.903534893216602e-08,2158,1.0937968398388781e-08,4.394358282509134e-09,3.048036797614234e-08,2158,5.44260467420391e-09,2.4521619962381395e-09,1.1994309472837553e-08,2158,0.028267825778681067,0.0206855949009915,0.037928278372835765,2158,12.0,12.0,12.0,2158,0.11360548810144447,0.0946612267960741,0.13007074283711517,2158,0.25256085115179294,0.22396536043896198,0.27570162363505907,2158,0.6313303361916642,0.6076562317835041,0.6597709191114715,2158,0.0025033245550966066,0.0009359678593942975,0.005338385620131643,2158,5.312133984762386e-18,2.222295650611632e-18,9.350512481249114e-18,2158,1.0,1.0,1.0,2158,1.0,0.9999999999999999,1.0,2158,0.0999999999999963,0.1,0.1,2158,0.5,0.5,0.5,2158
source_seed_condition,random_03,404,electrode,randomized,legacy_0p5_40,2158,4.628979580896371e-11,-1.6317623763251016e-08,1.8077567126986494e-08,2158,5.820760687945814e-08,2.331728410354117e-08,8.82416060221658e-08,2158,5.8210316706877745e-08,4.063854674996037e-08,7.740090168795177e-08,2158,1.0836090701067383e-08,4.745649996101881e-09,2.962239873159146e-08,2158,5.515470706505131e-09,2.618484482993317e-09,1.2346245919430683e-08,2158,0.29268166006148577,0.2724598974228095,0.31847166707703045,2158,12.0,12.0,12.0,2158,0.11373745383591065,0.08921599741459244,0.1446711681470323,2158,0.25259708024056066,0.21854302447587554,0.2920148107565239,2158,0.6311509366925518,0.5923547078391425,0.6753843593031428,2158,0.0025145292309770493,0.00046712601652217886,0.010986243878886165,2158,7.617224708813318e-18,2.788111697343811e-18,1.6298739516698083e-17,2158,1.0,1.0,1.0,2158,1.0,0.9999999999999998,1.0000000000000002,2158,0.0999999999999963,0.1,0.1,2158,0.5,0.5,0.5,2158
source_seed_condition,random_03,404,independent_rms,randomized,legacy_0p5_40,2158,-8.981468355500127e-11,-1.892164207297674e-08,1.7929641222885375e-08,2158,5.824165973143904e-08,2.589442971157041e-08,8.976737930765921e-08,2158,5.836820442193101e-08,3.8969837135027774e-08,7.478415042783126e-08,2158,1.0836090701067383e-08,4.745649996101881e-09,2.962239873159146e-08,2158,5.515470706505131e-09,2.618484482993317e-09,1.2346245919430683e-08,2158,0.02826782578377766,0.02068559521717325,0.03792827870339712,2158,12.0,12.0,12.0,2158,0.11360343129629265,0.09483906169733632,0.1301232404176801,2158,0.25256255241402303,0.22449863306751897,0.2754115435160921,2158,0.6313306254489958,0.6083039720979444,0.6587017719954262,2158,0.0025033908406894762,0.0009436113549029576,0.005297444798756145,2158,5.312133984762386e-18,2.222295650611632e-18,9.350512481249114e-18,2158,1.0,1.0,1.0,2158,1.0,0.9999999999999999,1.0,2158,0.0999999999999963,0.1,0.1,2158,0.5,0.5,0.5,2158
source_seed_condition,random_04,404,electrode,randomized,legacy_0p5_40,2158,-8.124189438848463e-11,-2.0780178353666628e-08,1.7907799205858063e-08,2158,5.836630167293979e-08,1.5905314398878545e-08,9.033117720491646e-08,2158,5.846298492501451e-08,4.239293183161408e-08,7.715866345847644e-08,2158,1.087786516770935e-08,4.40058925537476e-09,3.590527050456092e-08,2158,5.462724750567569e-09,2.299591820428401e-09,1.3257469995617531e-08,2158,0.2561963230809875,0.23859043032406052,0.27742138619919854,2158,12.0,12.0,12.0,2158,0.11369762864628,0.089258052561956,0.14200201952301728,2158,0.2525103389170245,0.21826682925293645,0.2940076580812488,2158,0.6312689741792175,0.5894976927742464,0.6679064269096299,2158,0.0025230582574789872,0.00045973228454416045,0.009740390133175908,2158,7.664912215023404e-18,2.9707543448020183e-18,1.526142792357595e-17,2158,1.0,1.0,1.0,2158,1.0,0.9999999999999998,1.0,2158,0.0999999999999963,0.1,0.1,2158,0.5,0.5,0.5,2158
source_seed_condition,random_04,404,independent_rms,randomized,legacy_0p5_40,2158,-5.98744235991967e-11,-1.8118635498387593e-08,1.959635587905131e-08,2158,5.815697956535728e-08,2.8558677200862803e-08,8.418593822057119e-08,2158,5.846484701123858e-08,4.198452252524021e-08,7.545545521736585e-08,2158,1.087786516770935e-08,4.40058925537476e-09,3.590527050456092e-08,2158,5.462724750567569e-09,2.299591820428401e-09,1.3257469995617531e-08,2158,0.02826782578784325,0.02068559510067828,0.03792827875025355,2158,12.0,12.0,12.0,2158,0.1136020723901901,0.09499094053766702,0.12992398903211808,2158,0.2525571496794913,0.22323634650973911,0.27556431528897374,2158,0.6313373688138451,0.6078460972858071,0.6602600835523006,2158,0.002503409116475261,0.0009425494038296625,0.005250851982270705,2158,5.312133984762386e-18,2.222295650611632e-18,9.350512481249114e-18,2158,1.0,1.0,1.0,2158,1.0,0.9999999999999999,1.0,2158,0.0999999999999963,0.1,0.1,2158,0.5,0.5,0.5,2158
source_seed_condition,band_0p05_5,404,electrode,standard,band_0p05_5,2158,-9.850609384153422e-11,-1.6945302584979334e-08,1.8898653388162554e-08,2158,5.8660462481924655e-08,2.4379783525319e-08,9.125902877826775e-08,2158,5.847882863360654e-08,4.401494457795252e-08,7.497496667951964e-08,2158,1.0954583990276964e-08,4.301235429414825e-09,4.1222721859886485e-08,2158,5.448031102517379e-09,2.3342815666166953e-09,1.1380827854690233e-08,2158,0.22756891138168203,0.17384093496070177,0.2797765500589526,2158,12.0,12.0,12.0,2158,0.983626016174212,0.9561265438683914,0.99589743607514,2158,0.015705512241680503,0.003601812924214451,0.04103356520155053,2158,0.0005612619130184142,3.994853465274959e-05,0.0035700795564539683,2158,0.00010720967108873513,6.9654151594929426e-06,0.0006859391197087993,2158,0.01962092791298502,0.005283088355067993,0.04421696155647258,2158,1.0010123738642982,0.8420266981911301,1.1745163976236703,2158,0.9972513077318693,0.9877983157418017,0.9998071224151859,2158,0.010000000000000266,0.01,0.01,2158,0.04999999999999815,0.05,0.05,2158
source_seed_condition,band_0p05_5,404,independent_rms,standard,band_0p05_5,2158,6.797386748408247e-11,-1.947343700206995e-08,2.0941092202662054e-08,2158,5.871184937295986e-08,3.018561400836006e-08,8.62464588635703e-08,2158,5.843533575877098e-08,4.3282671668976036e-08,7.458061546117278e-08,2158,1.0954583990276964e-08,4.301235429414825e-09,4.1222721859886485e-08,2158,5.448031102517379e-09,2.3342815666166953e-09,1.1380827854690233e-08,2158,0.07999337617828828,0.05551658149901441,0.10472636194788812,2158,12.0,12.0,12.0,2158,0.9835138459678929,0.9664091921726481,0.9935918440558204,2158,0.015825995663231784,0.006140220646828493,0.03227167972691231,2158,0.000554259611662029,7.563594405525016e-05,0.002102051416000912,2158,0.00010589875721227611,1.2314104749687742e-05,0.00040462149587222585,2158,0.015995241975799653,0.00636997384419919,0.028172294354501696,2158,0.9986263579149747,0.8815116766237862,1.1463546660800135,2158,0.9973056917270866,0.9920044993767342,0.9996136783812438,2158,0.010000000000000266,0.01,0.01,2158,0.04999999999999815,0.05,0.05,2158
source_seed_condition,band_5_15,404,electrode,standard,band_5_15,2158,9.620501418829901e-11,-1.7927226620920832e-08,1.631496167597985e-08,2158,5.8344681237089344e-08,2.6193047730771468e-08,9.066783945854695e-08,2158,5.852961306062547e-08,4.082031068719516e-08,7.956215597459959e-08,2158,1.0926724026494614e-08,4.149183914650362e-09,3.024798000292119e-08,2158,5.458712261132027e-09,2.3239336044055517e-09,1.1068209509850852e-08,2158,0.2140887667747365,0.17983898329861134,0.2589083749827481,2158,12.0,12.0,12.0,2158,0.0022734323673994227,0.0005042765682472975,0.008377380535694324,2158,0.9895001067240073,0.9757864838308273,0.9963477744902579,2158,0.00810977209378579,0.002641440072871194,0.023262295966262416,2158,0.00011668881480875931,3.2069770348155935e-06,0.0006622508008743985,2158,0.0014051751340723455,0.0004264156136901147,0.0032927164863643175,2158,1.0010791517588824,0.874829538888518,1.1340250605681528,2158,0.999993001394298,0.9999677663651837,0.9999994393368427,2158,0.010000000000000266,0.01,0.01,2158,5.0,5.0,5.0,2158
source_seed_condition,band_5_15,404,independent_rms,standard,band_5_15,2158,1.5334854113299247e-10,-2.017199100039226e-08,2.0759614453275194e-08,2158,5.8572346938023994e-08,3.1048948301304335e-08,9.149828983368025e-08,2158,5.8553505348217766e-08,4.108236950628452e-08,7.492037035206067e-08,2158,1.0926724026494614e-08,4.149183914650362e-09,3.024798000292119e-08,2158,5.458712261132027e-09,2.3239336044055517e-09,1.1068209509850852e-08,2158,0.0562997638994462,0.040486670277336295,0.07889750794653438,2158,12.0,12.0,12.0,2158,0.002259790237367042,0.0006777832716252419,0.005620636056622519,2158,0.98943301519661,0.9809138750096641,0.9950310636704331,2158,0.008188773433925873,0.0031081486054868202,0.015350320086389832,2158,0.00011842113209815422,1.9478846712365323e-05,0.00031059284583141586,2158,0.0011455044173469845,0.0005226295517832733,0.0020335698311049733,2158,1.0004104856996547,0.9094629123991097,1.094657551489581,2158,0.9999931651156788,0.9999789069567061,0.9999987218077737,2158,0.010000000000000266,0.01,0.01,2158,5.0,5.0,5.0,2158
source_seed_condition,band_15_40,404,electrode,standard,band_15_40,2158,-6.801458365302875e-11,-1.789657016846893e-08,2.1200085486407587e-08,2158,5.852882955637851e-08,2.3820806660523886e-08,8.784829041985631e-08,2158,5.837764980266641e-08,4.136561493339741e-08,7.613907726522484e-08,2158,1.0781154422042274e-08,3.883925108784503e-09,3.57446319343032e-08,2158,5.485487357367463e-09,2.2309805464201656e-09,1.131046304440414e-08,2158,0.20186731741994485,0.18344833800589908,0.23023111992939474,2158,12.0,12.0,12.0,2158,0.00010571193159495175,8.897763025818957e-06,0.000553007471993191,2158,0.0010511653713195512,0.00023034810682189845,0.003219542484656794,2158,0.9955073366891121,0.9886216642471093,0.9981834324575065,2158,0.0033357860079739603,0.0008271950743422158,0.009761657786791887,2158,0.0008509827154526035,0.0002511615466622725,0.0020278243616750086,2158,0.9992410013964548,0.9121293719571214,1.079244143471914,2158,0.999998972100529,0.999994553349887,0.999999918397218,2158,0.010000000000000266,0.01,0.01,2158,15.0,15.0,15.0,2158
