object,snr,noise_seed,mode,n_valid,n_null,mean,sd,median,q1,q3,iqr,min,max
clean,,,,100,0,1.2188700761083082e-06,7.226765628677606e-07,1.175946066607108e-06,7.776088058911654e-07,1.4546931731261286e-06,6.770843672349632e-07,6.139160142639693e-08,4.02696829319e-06
E_noise,0,8128,,100,0,6.059671705764475e-16,6.056805845124688e-17,5.968609349045989e-16,5.683864090820669e-16,6.449354929530416e-16,7.654908387097478e-17,4.524859606422407e-16,8.352607225020884e-16
E_input,0,8128,,100,0,6.106319640552127e-07,3.617656874655318e-07,5.787595237809173e-07,3.869730875387236e-07,7.270949715873732e-07,3.4012188404864956e-07,3.094588445172848e-08,2.03202727572714e-06
I_noise,0,8128,,100,0,0.3742375376147835,0.0077838719768797485,0.3754429288448784,0.3684132110541328,0.37972760036871633,0.011314389314583506,0.35518359546957984,0.3908207979055761
I_input,0,8128,,100,0,0.1872675540614689,0.004151105723181343,0.18737700229149762,0.18416244255883835,0.1900310786547634,0.005868636095925056,0.17707831630235715,0.19508603273055472
S_noise,0,8128,S_00,100,0,0.4527903655976381,0.007535438374102734,0.4526144286113664,0.44848824459163406,0.45870194255259095,0.010213697960956891,0.4317034117920007,0.4709011171503757
S_input,0,8128,S_00,100,0,0.22624275083416698,0.004257413300384447,0.22610958036663314,0.2236519107063761,0.22949168122484792,0.005839770518471815,0.2144499352128124,0.23520715490722932
S_noise,0,8128,S_01,100,0,0.3139155246535891,0.008738081696199246,0.314009966959515,0.3083741011787067,0.3191788810669122,0.010804779888205496,0.2937491826594633,0.34166498083003316
S_input,0,8128,S_01,100,0,0.1571095077670535,0.0046081296705768,0.15680450428720766,0.15427556189017083,0.15984359063783352,0.005568028747662684,0.1458304108530997,0.1702844833074318
S_noise,0,8128,S_02,100,0,0.23215272399640802,0.008856471578581694,0.23161388664867905,0.2273133224315825,0.23785893529590135,0.010545612864318848,0.21076762312079209,0.25431409152740975
S_input,0,8128,S_02,100,0,0.11613277543925044,0.00482369556729627,0.1159260282895445,0.11338912335817211,0.11915721957887693,0.005768096220704816,0.10644596801850062,0.12929039005259715
S_noise,0,8128,S_03,100,0,0.5562966453324346,0.00885923616266665,0.5571223906421872,0.5503756014169385,0.5630784036506952,0.012702802233756638,0.5360887580667828,0.5772565894273171
S_input,0,8128,S_03,100,0,0.278273532919719,0.004882995507345337,0.2779361167526415,0.2751871472994798,0.2823972592501652,0.007210111950685383,0.2668539446993063,0.29083913087123403
S_noise,0,8128,S_04,100,0,0.499580419870687,0.007821916968433769,0.5003721258873495,0.49402454243527505,0.5053631541035531,0.011338611668278098,0.48276113583635083,0.518998646709196
S_input,0,8128,S_04,100,0,0.24987290289933634,0.0042666907751256495,0.25034864092194986,0.24690950642689807,0.25260430707446146,0.005694800647563392,0.23717334887701932,0.25905443720599397
E_noise,0,101,,100,0,6.095087510615582e-16,6.347318743174443e-17,6.063950589149574e-16,5.712786694175603e-16,6.421624112295487e-16,7.088374181198845e-17,4.737292941850703e-16,8.610254612743039e-16
E_input,0,101,,100,0,6.096767140672994e-07,3.6306246179734685e-07,5.866362733710138e-07,3.8720708324627175e-07,7.243815364747647e-07,3.371744532284929e-07,3.103781903697823e-08,2.0555865658117288e-06
I_noise,0,101,,100,0,0.3744265367885232,0.008731497590809979,0.37509844948507576,0.36840371269032746,0.3793671608631205,0.010963448172793044,0.3554823158063648,0.40078410086079025
I_input,0,101,,100,0,0.18770742363114287,0.004684556942572969,0.18777896746036593,0.18475031074577303,0.190537512747585,0.0057872020018119585,0.17671705793207823,0.2013925651983815
S_noise,0,101,S_00,100,0,0.45361607753934224,0.009649291058133209,0.45296906375056145,0.4487064357464209,0.45882976323957303,0.010123327493152146,0.43358821512163065,0.4831615974717542
S_input,0,101,S_00,100,0,0.22700497076719495,0.005340143578561872,0.2268181454856743,0.22408049669492147,0.22991986973882994,0.005839373043908469,0.21522657590336208,0.24462978227043064
S_noise,0,101,S_01,100,0,0.31310971841010776,0.010695301093199177,0.3119500844499573,0.3059127956939649,0.31887608022477676,0.012963284530811858,0.2928241275056602,0.341162241708959
S_input,0,101,S_01,100,0,0.1564980871246888,0.005392519832838037,0.15618149381962626,0.1529136526041462,0.1598683348326599,0.006954682228513698,0.14546158361597325,0.17262383432665016
S_noise,0,101,S_02,100,0,0.2304910577954771,0.009874084089512014,0.23085027317691792,0.22374618075982966,0.2358239486999021,0.012077767940072426,0.21026171267191632,0.25711746846136796
S_input,0,101,S_02,100,0,0.1153435940990193,0.004982084260857679,0.11521553975681309,0.1117961659244161,0.11765685792111819,0.005860691996702083,0.10484694951701487,0.12809598193923982
S_noise,0,101,S_03,100,0,0.5564446918897429,0.010050432361009776,0.5557146028195853,0.5502148649067968,0.5624393443846205,0.01222447947782368,0.5342531159619911,0.5864622543860509
S_input,0,101,S_03,100,0,0.2783771416221095,0.0053550293909893935,0.27805755602951265,0.2746619381434131,0.28161593656396267,0.006953998420549556,0.2655798215523651,0.29266228442371145
S_noise,0,101,S_04,100,0,0.4999814646719727,0.00902863221623346,0.49872513375812755,0.4946926744906064,0.5058840701739844,0.011191395683378014,0.4798608406543883,0.5267720860716485
S_input,0,101,S_04,100,0,0.24999896694955442,0.0049003456713159945,0.2498050335957666,0.24685905473288533,0.2529269616377767,0.006067906904891396,0.23926716149810254,0.26553059824778613
E_noise,0,202,,100,0,6.090692722493064e-16,6.685951720219558e-17,6.056464075359428e-16,5.595522044323704e-16,6.463537346817352e-16,8.680153024936482e-17,4.918351666467268e-16,8.81503629232531e-16
E_input,0,202,,100,0,6.109415679605991e-07,3.651183095258784e-07,5.839525807756024e-07,3.821343770302252e-07,7.259460486816355e-07,3.4381167165141035e-07,3.159221922215028e-08,2.0796430036108876e-06
I_noise,0,202,,100,0,0.37319065843438187,0.009772988806451449,0.3721873735873367,0.36651080804054104,0.3795688264706458,0.01305801843010479,0.3509192024515307,0.39780466085274396
I_input,0,202,,100,0,0.18663962529406475,0.005560092050706254,0.18647922418151702,0.18285330318457077,0.19128210904935333,0.008428805864782563,0.17305894829127683,0.2009608425096707
S_noise,0,202,S_00,100,0,0.4515268558547313,0.010335661653400528,0.4522029435060524,0.4439926258051874,0.45866985983511815,0.014677234029930764,0.42885517432730114,0.47820891009998656
S_input,0,202,S_00,100,0,0.2258748935924771,0.005102344596317256,0.22632404747116147,0.22260114914924467,0.22907048003104458,0.006469330881799906,0.21105609035528072,0.24093242164515793
S_noise,0,202,S_01,100,0,0.3132780912046218,0.010705652624293965,0.3120112930879584,0.30690991461608563,0.3205895867013396,0.013679672085253947,0.28614914202829317,0.34322285216940285
S_input,0,202,S_01,100,0,0.15659473346402922,0.005380869391159611,0.15612237155747896,0.15289873398958886,0.15998856842048179,0.007089834430892922,0.1443861284867933,0.1717844133536862
S_noise,0,202,S_02,100,0,0.23107058327562066,0.008916739139364952,0.2304076966636791,0.2255132007705306,0.23655057358242898,0.011037372811898372,0.2087047067782515,0.256761024371321
S_input,0,202,S_02,100,0,0.11559895608820613,0.004611455930936164,0.11497021373539876,0.1125403101996189,0.11871208906285767,0.006171778863238775,0.1046435141183504,0.12999688629203118
S_noise,0,202,S_03,100,0,0.5540533034259475,0.011436307728185846,0.554652139533415,0.5463666878552946,0.5624043314261006,0.01603764357080595,0.5296836731878213,0.5796436091862438
S_input,0,202,S_03,100,0,0.2769560089621368,0.006480053159025829,0.27710060034750617,0.27265282374552824,0.2814504361912995,0.008797612445771263,0.26383934899594796,0.29074890887491217
S_noise,0,202,S_04,100,0,0.4975884978227432,0.010287226077354753,0.4987072383905532,0.4907644715592725,0.5045488155370699,0.013784343977797375,0.47588206427539187,0.5208186850350522
S_input,0,202,S_04,100,0,0.2489129112794442,0.005870942740299611,0.24900970087786756,0.24495962612382607,0.2528058440011203,0.007846217877294198,0.23440390261877442,0.25997694376713915
E_noise,0,303,,100,0,6.115358934266711e-16,6.185300555850725e-17,6.026529858383688e-16,5.722558513599824e-16,6.502252676798696e-16,7.796941631988723e-17,4.583461611161843e-16,8.498864954607877e-16
E_input,0,303,,100,0,6.091186737186622e-07,3.6240045501381974e-07,5.869321473987754e-07,3.8270033476768274e-07,7.19898931284323e-07,3.371985965166403e-07,3.054793323594694e-08,2.0074409792599097e-06
I_noise,0,303,,100,0,0.37368649797570574,0.008316736257589174,0.3733776718494305,0.369135232987924,0.37832763100988936,0.009192398021965364,0.3486161573180701,0.39784006587306353
I_input,0,303,,100,0,0.18669400776986456,0.004717952731617145,0.18621278321805523,0.18434157621519265,0.18965165930840527,0.005310083093212625,0.17582791502949893,0.19819209071001834
S_noise,0,303,S_00,100,0,0.45211653832504395,0.009013357944685203,0.4528098704194329,0.44624735155211126,0.45775345171658793,0.011506100164476674,0.42263734107090245,0.4733838064149553
S_input,0,303,S_00,100,0,0.22600798755286275,0.0048782740396976255,0.2259419653053208,0.22242508032211666,0.2294746812359402,0.007049600913823534,0.21074768643657754,0.23772266133543402
S_noise,0,303,S_01,100,0,0.31472153941967834,0.0114336074314742,0.31410686282624867,0.30622352200328423,0.3234238251922886,0.017200303189004396,0.28631950269057505,0.3449556879134451
S_input,0,303,S_01,100,0,0.15739942507672566,0.0060116699450267095,0.1570866503785952,0.15347367124659347,0.16157093624139043,0.00809726499479696,0.14141613713201553,0.17432628704159028
S_noise,0,303,S_02,100,0,0.2329587103911606,0.010925434542702167,0.23165493469987503,0.22516791783528164,0.23999683373420258,0.014828915898920936,0.21117604839900803,0.2622347627449602
S_input,0,303,S_02,100,0,0.11654485191923618,0.005679258364196263,0.11636680491708919,0.11265516145930808,0.12019372262742582,0.007538561168117741,0.10303778606790372,0.13108221845004364
S_noise,0,303,S_03,100,0,0.5554499881061781,0.011036806512258374,0.555112090806763,0.5485229872524383,0.563697166424276,0.01517417917183772,0.5202230051646839,0.5801466681514659
S_input,0,303,S_03,100,0,0.2778488726283339,0.005863518114209476,0.2778019873742582,0.2741935458906579,0.28241297776722285,0.008219431876564931,0.25989673466045426,0.2906107062701408
S_noise,0,303,S_04,100,0,0.49863974467328537,0.009578582113320806,0.49861321925304597,0.49281425704583165,0.505905071792459,0.013090814746627377,0.4680605944650282,0.5178676797861148
S_input,0,303,S_04,100,0,0.24921483556732427,0.004982192084475676,0.24955060896470083,0.24617942172504592,0.25266594484325966,0.006486523118213738,0.23544367996878188,0.2589491936698402
E_noise,0,404,,100,0,6.146858413235893e-16,6.413067405727351e-17,6.077553378505743e-16,5.737811642149874e-16,6.575578227755169e-16,8.377665856052958e-17,4.627893466790326e-16,8.877569554972585e-16
E_input,0,404,,100,0,6.099983700399831e-07,3.641001481294076e-07,5.857823547954068e-07,3.8704300418709486e-07,7.281392495961966e-07,3.410962454091017e-07,3.060195844336023e-08,2.004789698203146e-06
I_noise,0,404,,100,0,0.37460292625182506,0.008874770889267775,0.37405763939589715,0.36869981015516845,0.3801803770871074,0.01148056693193894,0.35221400174873696,0.39869884266825323
I_input,0,404,,100,0,0.18729421814788538,0.004882094921387702,0.18717737027080875,0.18441439792697673,0.19037521172315464,0.005960813796177911,0.17385831806305785,0.19876396273981856
S_noise,0,404,S_00,100,0,0.453286201688659,0.00898815035340038,0.45449132272826726,0.4469135913534294,0.4597380214107952,0.012824430057365777,0.43001490873175935,0.473271266201875
S_input,0,404,S_00,100,0,0.22686873944780073,0.004632329560991575,0.22671374044373824,0.22399836153032154,0.23000230219507037,0.006003940664748825,0.21630312047149072,0.23750888492233108
S_noise,0,404,S_01,100,0,0.31533553273343984,0.009502974459857382,0.31418817611471506,0.30951949001794093,0.3224864621729703,0.012966972155029344,0.2875067315498466,0.3345725838823616
S_input,0,404,S_01,100,0,0.1579752332847684,0.00488693170402513,0.1574444542647351,0.15550666630173993,0.16112892675901333,0.005622260457273404,0.14320841282422342,0.168108196644169
S_noise,0,404,S_02,100,0,0.23300169430067044,0.008567968867688019,0.23305044787008605,0.22626903171249518,0.23875493488557348,0.012485903173078294,0.20876964018471317,0.24988244160432405
S_input,0,404,S_02,100,0,0.11637888497091943,0.00465034668808416,0.11638799609996689,0.11304640703494687,0.11948645909071444,0.006440052055767573,0.10469374315968866,0.12564016130791206
S_noise,0,404,S_03,100,0,0.5564895268104524,0.01028284642966435,0.5577432983234902,0.5483129791644518,0.5637928594519567,0.01547988028750491,0.532987957374893,0.5789986460030097
S_input,0,404,S_03,100,0,0.27811699391138306,0.005816335029950558,0.2785016158799437,0.274648424782124,0.2827356448475644,0.008087220065440437,0.2655654499910714,0.29038773699449655
S_noise,0,404,S_04,100,0,0.4996340956405656,0.009268598330798737,0.5007769421123502,0.49283142006800534,0.5063440206934515,0.01351260062544618,0.47632262914655915,0.5195700089840448
S_input,0,404,S_04,100,0,0.2493154574556056,0.005178819881687739,0.24946297470157666,0.2458135526205649,0.2525830236777733,0.006769471057208404,0.23503868096303399,0.25993786615215636
E_noise,0,505,,100,0,6.111858846811969e-16,6.411943039704926e-17,6.077213099441159e-16,5.615480088373628e-16,6.491499715094022e-16,8.760196267203945e-17,4.887942791994683e-16,8.796395154149171e-16
E_input,0,505,,100,0,6.093220655430471e-07,3.610410857391052e-07,5.829360780895606e-07,3.896660269345016e-07,7.299148467104966e-07,3.40248819775995e-07,3.060912016543595e-08,2.0178424121038688e-06
I_noise,0,505,,100,0,0.37371617265297347,0.008567587409558227,0.37346930581672044,0.36785154382776664,0.3797302427565939,0.011878698928827258,0.35317049430570957,0.3951259320148669
I_input,0,505,,100,0,0.18697654238909978,0.00444268913431424,0.18657831390072005,0.18418914439181644,0.1901605355570449,0.005971391165228462,0.17615532456821253,0.1965746598433119
S_noise,0,505,S_00,100,0,0.45278323441623103,0.009594688497197587,0.4523207640284568,0.44654734135368257,0.45910967147950266,0.012562330125820087,0.43350204838476375,0.47727017953587153
S_input,0,505,S_00,100,0,0.2265802805949163,0.005196407919260718,0.22667844767097306,0.22276664506326432,0.23005182813493624,0.007285183071671919,0.21538675076355893,0.2374404827193034
S_noise,0,505,S_01,100,0,0.31430065355041553,0.009715526827378335,0.31422600626740715,0.3074704417543572,0.3207374986145034,0.013267056860146176,0.29472985955135655,0.3375397121132782
S_input,0,505,S_01,100,0,0.15725132749598847,0.005237577114671825,0.1571404334413279,0.15371032786961922,0.1606933674144809,0.00698303954486168,0.14679539947386225,0.16899055642266872
S_noise,0,505,S_02,100,0,0.23168889129944772,0.009999158304736803,0.23117245621663907,0.22456104327732296,0.23906152705568637,0.01450048377836341,0.21025047866532348,0.25385927794026447
S_input,0,505,S_02,100,0,0.11585785224839602,0.005141710221973747,0.1158976956529586,0.11236226750006233,0.11869314877620767,0.006330881276145339,0.10395067987003945,0.1290315452606714
S_noise,0,505,S_03,100,0,0.5554223748366458,0.010394922263678004,0.5546745287285115,0.5483594860409461,0.5621229101435228,0.013763424102576693,0.5333287192188066,0.5792027866497652
S_input,0,505,S_03,100,0,0.2775206373392,0.005758618723286638,0.27663206621268416,0.2732771497695528,0.28147237990395396,0.008195230134401155,0.26506253042269723,0.29137415550744383
S_noise,0,505,S_04,100,0,0.4988106814841391,0.009522656067269618,0.49813110834955765,0.49218745579001194,0.5049242127658593,0.012736756975847363,0.47901681138970686,0.521757741330621
S_input,0,505,S_04,100,0,0.24926591206193233,0.004907353442663976,0.24848031561073275,0.24591498703603928,0.25201471765900674,0.006099730622967453,0.23953748543825945,0.2643735046707444
E_noise,5,8128,,100,0,1.0833259793508244e-15,1.734952081219542e-16,1.0749450720997966e-15,9.606431459513552e-16,1.190825241376963e-15,2.3018209542560776e-16,7.433201274447628e-16,1.6833875720016566e-15
E_input,5,8128,,100,0,9.275623727085163e-07,5.495654136953254e-07,8.824173344002425e-07,5.882859055105159e-07,1.104855460702674e-06,5.165695551921581e-07,4.6966129076985716e-08,3.083521237059993e-06
I_noise,5,8128,,100,0,0.37423753763032086,0.007783872005554591,0.3754429285718758,0.36841321097239865,0.3797276005685183,0.011314389596119634,0.355183596240578,0.39082079855713253
I_input,5,8128,,100,0,0.08997224067109849,0.0019585605703711564,0.09014035002010565,0.088471018212034,0.09124597165800044,0.002774953445966441,0.0851481075440653,0.09374272603051625
S_noise,5,8128,S_00,100,0,0.45279036553334995,0.007535438398292665,0.4526144274418218,0.4484882441400175,0.4587019437168969,0.010213699576879398,0.431703412074123,0.47090111669867724
S_input,5,8128,S_00,100,0,0.10872126837093987,0.001991975042935186,0.10862984133002346,0.10752743725244239,0.11026804052075768,0.0027406032683152948,0.10313838536323225,0.11287449499337157
S_noise,5,8128,S_01,100,0,0.3139155245338609,0.008738081725663639,0.3140099672274771,0.30837410160606454,0.31917888044537984,0.010804778839315299,0.2937491831138562,0.34166498127226225
S_input,5,8128,S_01,100,0,0.0754811643832967,0.002182851674414629,0.07543630635936141,0.07410615577404124,0.07681734783050945,0.0027111920564682063,0.07024589252078378,0.08175018692618154
S_noise,5,8128,S_02,100,0,0.23215272394679345,0.008856471538688876,0.23161388677952321,0.22731332255906944,0.23785893440802539,0.010545611848955944,0.2107676229988838,0.25431409249118037
S_input,5,8128,S_02,100,0,0.05579809217641906,0.0022796325403039324,0.055654648113361294,0.05448754959839389,0.057255757929144134,0.002768208330750241,0.05118703364164772,0.061978029337148945
S_noise,5,8128,S_03,100,0,0.5562966452056181,0.008859236288788883,0.5571223912982624,0.5503756008846911,0.5630784038438864,0.012702802959195347,0.5360887580683038,0.5772565876319866
S_input,5,8128,S_03,100,0,0.1337030818333847,0.0022893360700928624,0.1335162515519065,0.1322483318377644,0.1355544481175315,0.003306116279767096,0.12831700343320968,0.13959262039748588
S_noise,5,8128,S_04,100,0,0.49958041990562974,0.007821916980438843,0.5003721263625986,0.494024542498088,0.5053631545796926,0.011338612081604582,0.4827611355479832,0.5189986452931059
S_input,5,8128,S_04,100,0,0.1200590975411312,0.0019974864355075503,0.1203442227352044,0.11870668077955555,0.1214725319151484,0.0027658511355928422,0.11426628138503298,0.12449813037373626
E_noise,5,101,,100,0,1.0861432344335248e-15,1.775755382542021e-16,1.0573651960730009e-15,9.776769651870471e-16,1.1975868360014368e-15,2.199098708143897e-16,7.56177339712683e-16,1.8114658511929397e-15
E_input,5,101,,100,0,9.26330192332731e-07,5.512578682799817e-07,8.918102550125957e-07,5.871664089967665e-07,1.1014222012182886e-06,5.14255792221522e-07,4.708530360956878e-08,3.113972930912335e-06
I_noise,5,101,,100,0,0.37442653678552296,0.008731497434490514,0.37509844914757295,0.36840371382426673,0.37936716075369187,0.010963446929425136,0.3554823159821303,0.4007841008165273
I_input,5,101,,100,0,0.09016022406047113,0.0022156406759302064,0.09020411514818921,0.08874969651245654,0.09149774656055806,0.0027480500481015246,0.0849834297151746,0.0966997810749703
S_noise,5,101,S_00,100,0,0.453616077472645,0.00964929123761204,0.4529690623461668,0.448706435484831,0.45882976272754805,0.010123327242717028,0.4335882159018581,0.48316159683490906
S_input,5,101,S_00,100,0,0.1090629576491949,0.0025107944285299084,0.10905403695861138,0.10767253665655424,0.11043224443617139,0.0027597077796171487,0.10357381082230645,0.11718817823761624
S_noise,5,101,S_01,100,0,0.31310971832590984,0.01069530124232288,0.31195008517924994,0.3059127944465623,0.3188760802629907,0.012963285816428416,0.29282412683467407,0.3411622427474298
S_input,5,101,S_01,100,0,0.07520110554260254,0.002574063477043404,0.07498990705676026,0.07344930726120275,0.0767131827471762,0.0032638754859734553,0.06997307190733897,0.08281617144483805
S_noise,5,101,S_02,100,0,0.23049105779484244,0.009874083973920672,0.2308502731778596,0.22374618164768562,0.23582394889561742,0.012077767247931803,0.21026171364479185,0.25711746853075174
S_input,5,101,S_02,100,0,0.05541684216202059,0.0023837951443073852,0.05538096570134939,0.053642678239836816,0.0564303042362749,0.0027876259964380867,0.05040071998395966,0.06153114912942363
S_noise,5,101,S_03,100,0,0.5564446918816138,0.010050432547242309,0.5557146042197763,0.5502148642149081,0.562439344955585,0.012224480740676946,0.5342531172291749,0.5864622543846262
S_input,5,101,S_03,100,0,0.13375061761048124,0.002529859402502709,0.13352919132209295,0.13193129052340924,0.13537345229517253,0.0034421617717632913,0.12774397684308536,0.140603425170178
S_noise,5,101,S_04,100,0,0.4999814646560418,0.009028632310982308,0.4987251330858215,0.4946926748479988,0.5058840687439332,0.011191393895934432,0.4798608403438566,0.5267720852653041
S_input,5,101,S_04,100,0,0.12012516448957747,0.0023025080740503657,0.12004658713242439,0.1185889979774048,0.12149333811771505,0.0029043401403102548,0.11507204873315105,0.1274361534809997
E_noise,5,202,,100,0,1.0783647803748483e-15,1.720510402391035e-16,1.056467321280029e-15,9.824325778284702e-16,1.1563408530337768e-15,1.7390827520530659e-16,7.512297848789829e-16,1.7130414239845503e-15
E_input,5,202,,100,0,9.279627199280024e-07,5.538863983150639e-07,8.881879466939634e-07,5.820992967369308e-07,1.1034611559881344e-06,5.213618592512035e-07,4.780092810319592e-08,3.1449685075187896e-06
I_noise,5,202,,100,0,0.3731906584604298,0.009772988806392883,0.37218737315652095,0.36651080769702427,0.379568826680024,0.013058018982999742,0.3509192017085332,0.397804661251104
I_input,5,202,,100,0,0.08967844565128416,0.0026098881525656414,0.08949360891423212,0.08789515872742973,0.09198954750551754,0.004094388778087807,0.08333887808377807,0.09642454621515069
S_noise,5,202,S_00,100,0,0.4515268558768307,0.010335661506523892,0.45220294338035405,0.4439926258419059,0.4586698606197758,0.014677234777869919,0.42885517282373853,0.47820890971066726
S_input,5,202,S_00,100,0,0.10852591434727643,0.0024364697336390017,0.10873585886204643,0.1068665591411697,0.10995861673747653,0.0030920575963068325,0.10165725133968023,0.11563386314968341
S_noise,5,202,S_01,100,0,0.3132780912399706,0.010705652687822802,0.3120112929915224,0.3069099140061158,0.3205895869798378,0.013679672973722024,0.2861491425879179,0.34322285310872797
S_input,5,202,S_01,100,0,0.0752468814377197,0.002569308260677579,0.07490198659857653,0.07353781226412254,0.07685540981262269,0.0033175975485001535,0.06928583838165771,0.08253200977910734
S_noise,5,202,S_02,100,0,0.23107058336066463,0.008916739120386322,0.2304076976465973,0.22551320056587787,0.23655057366290064,0.011037373097022768,0.2087047071515694,0.25676102519509125
S_input,5,202,S_02,100,0,0.05554161167488378,0.002195645002945722,0.05524206375023101,0.05408036947498074,0.05699067723114462,0.0029103077561638824,0.05026249890341771,0.06235130574114743
S_noise,5,202,S_03,100,0,0.5540533035044047,0.0114363075972992,0.5546521397808875,0.5463666883957876,0.5624043318399081,0.01603764344412051,0.5296836719823989,0.5796436094660034
S_input,5,202,S_03,100,0,0.1330830127791288,0.0030397841254488573,0.13313688244648061,0.1309425378421857,0.135220859325076,0.004278321482890285,0.12684563457397072,0.1396084862403335
S_noise,5,202,S_04,100,0,0.49758849787415693,0.01028722589663334,0.4987072381491075,0.4907644720112488,0.5045488145529071,0.013784342541658334,0.47588206253061305,0.5208186841467989
S_input,5,202,S_04,100,0,0.11959545735161276,0.0027496035404408954,0.11970170374788666,0.11772553842025547,0.12143711213006915,0.003711573709813676,0.11287902292648397,0.12479928851941703
E_noise,5,303,,100,0,1.0918179442124204e-15,1.68987454841341e-16,1.0708306131246934e-15,9.95292218187524e-16,1.1959695324917934e-15,2.0067731430426928e-16,7.087521760605618e-16,1.7555657444303778e-15
E_input,5,303,,100,0,9.256045140296375e-07,5.50403354752378e-07,8.936524557821562e-07,5.828329164992037e-07,1.0927888617322673e-06,5.099559452330636e-07,4.6449982046052516e-08,3.0516278983982155e-06
I_noise,5,303,,100,0,0.37368649786358643,0.008316736328543774,0.37337767250009446,0.3691352325586764,0.37832763210987125,0.00919239955119483,0.3486161579431131,0.3978400671457633
I_input,5,303,,100,0,0.0897174770937978,0.002207978205109816,0.08953295485040699,0.08862186984240635,0.09119324240744485,0.0025713725650385044,0.084442955177036,0.09501151948379151
S_noise,5,303,S_00,100,0,0.45211653828329385,0.009013357927389854,0.4528098707962567,0.44624735163224055,0.457753451510906,0.011506099878665466,0.4226373401218886,0.47338380668589736
S_input,5,303,S_00,100,0,0.10860058580303464,0.00229318595821779,0.10854097045082266,0.10699953744517234,0.11017470451065572,0.003175167065483389,0.10130234954092049,0.11415474741180902
S_noise,5,303,S_01,100,0,0.3147215393699445,0.011433607377301378,0.3141068626075468,0.306223522419026,0.32342382582565676,0.017200303406630757,0.2863195014499882,0.34495568729293113
S_input,5,303,S_01,100,0,0.07562926653448218,0.0028603016105475483,0.07548171984531611,0.07375507727698333,0.07765528216873413,0.0039002048917508025,0.0680673909133921,0.08363664711432708
S_noise,5,303,S_02,100,0,0.23295871045269256,0.01092543452835941,0.23165493469799142,0.22516791751610374,0.23999683383384376,0.014828916317740026,0.21117604779635152,0.262234762883398
S_input,5,303,S_02,100,0,0.055995451151898974,0.00270768746776939,0.05590810045120462,0.05412282274317144,0.05774655910494158,0.003623736361770137,0.04968900960625054,0.06298588764201758
S_noise,5,303,S_03,100,0,0.555449988066381,0.01103680658525818,0.55511209224567,0.5485229883888703,0.5636971656134654,0.015174177224595131,0.5202230042480259,0.5801466686597452
S_input,5,303,S_03,100,0,0.13349882266111698,0.0027712329899457926,0.13345847405844796,0.1316819139704937,0.13556722474287042,0.003885310772376721,0.12511518222856788,0.13960629896299726
S_noise,5,303,S_04,100,0,0.4986397446258731,0.009578582128846803,0.4986132194632278,0.4928142563441167,0.5059050720931415,0.01309081574902482,0.4680605941841402,0.5178676804586952
S_input,5,303,S_04,100,0,0.11975644338424056,0.002356286327246682,0.1200014438046155,0.1183255747846698,0.12155413519503358,0.003228560410363776,0.11303775836233047,0.1244118450629093
E_noise,5,404,,100,0,1.0927842882388422e-15,1.66446173292526e-16,1.088057350438177e-15,9.883822042982533e-16,1.199125443421812e-15,2.1074323912355873e-16,7.82786512073332e-16,1.77173766174766e-15
E_input,5,404,,100,0,9.2674065998861e-07,5.52587956105715e-07,8.895262806010605e-07,5.884959729140038e-07,1.1063110991375412e-06,5.178151262235375e-07,4.652012845411029e-08,3.048180726524249e-06
I_noise,5,404,,100,0,0.3746029262467065,0.008874770756694591,0.37405763910521533,0.36869980979328154,0.38018037685777584,0.011480567064494296,0.35221400307519873,0.39869884167157393
I_input,5,404,,100,0,0.08999666001178964,0.0022971183653448207,0.0899365512293002,0.08867991355684807,0.09143114551430845,0.0027512319574603816,0.08369001937542021,0.09555480278037883
S_noise,5,404,S_00,100,0,0.45328620167333183,0.008988150436357683,0.4544913233547433,0.44691359198096486,0.45973802176003375,0.012824429779068891,0.4300149084696341,0.47327126669345837
S_input,5,404,S_00,100,0,0.10899562787355166,0.002192625663845764,0.10901341308027745,0.10755514141907133,0.11042336125224103,0.002868219833169705,0.10403823205165003,0.11383820936382175
S_noise,5,404,S_01,100,0,0.3153355328260664,0.009502974486712614,0.314188176344096,0.3095194897953362,0.32248646244778856,0.012966972652452335,0.28750673201044935,0.3345725833910632
S_input,5,404,S_01,100,0,0.07588686646454373,0.0023236428687610873,0.07564188876449537,0.07476910303142603,0.07745171573531395,0.002682612703887921,0.06885348858678216,0.08070576236515352
S_noise,5,404,S_02,100,0,0.2330016941991051,0.008567968780632006,0.23305044837688815,0.22626903143428123,0.23875493464093772,0.01248590320665649,0.20876964010567745,0.24988244147539504
S_input,5,404,S_02,100,0,0.05592839334416884,0.002201250483297608,0.05596505265654534,0.054313108797779834,0.05740607755618761,0.0030929687584077756,0.050283661347869074,0.06031301263365596
S_noise,5,404,S_03,100,0,0.5564895268859525,0.010282846497241259,0.5577432991251272,0.5483129790398859,0.5637928592317835,0.01547988019189761,0.5329879567617514,0.5789986465182535
S_input,5,404,S_03,100,0,0.133644871688349,0.0027245266760704944,0.1338815060561075,0.13193070144091384,0.1358143024666714,0.0038836010257575493,0.12766679656333138,0.1393560628899133
S_noise,5,404,S_04,100,0,0.49963409565500877,0.009268598339334506,0.5007769431060518,0.4928314199949438,0.5063440204988316,0.013512600503887862,0.4763226285754913,0.5195700081345153
S_input,5,404,S_04,100,0,0.1198308917937537,0.002419316483897222,0.11985648876617686,0.1181917078689914,0.12137598550729481,0.0031842776383034094,0.11315224090941202,0.12479658294575798
E_noise,5,505,,100,0,1.0866606288954254e-15,1.7878847680933797e-16,1.057212508363364e-15,9.739748843074963e-16,1.1808537309993002e-15,2.0687884669180385e-16,7.320503909147474e-16,1.7428852094821985e-15
E_input,5,505,,100,0,9.258671820125525e-07,5.486408440151558e-07,8.869853172536393e-07,5.919040500273225e-07,1.1092162598337416e-06,5.173122098064191e-07,4.65294113978208e-08,3.0651328916935604e-06
I_noise,5,505,,100,0,0.37371617269194685,0.008567587497260748,0.373469306094127,0.3678515436760984,0.37973024235156344,0.011878698675465038,0.3531704937881148,0.39512593104578236
I_input,5,505,,100,0,0.08983569074369142,0.0021034972242765237,0.08960084132884738,0.08840731867827423,0.09143469531015778,0.0030273766318835577,0.08467541619101802,0.09452769639767204
S_noise,5,505,S_00,100,0,0.4527832343039993,0.009594688484295079,0.45232076427994655,0.4465473420196683,0.45910967169947997,0.01256232967981169,0.4335020494360292,0.4772701797059998
S_input,5,505,S_00,100,0,0.10885954080926658,0.0024494360344380108,0.10893810485781122,0.10704597263795851,0.11052218453778816,0.003476211899829648,0.10366360336052108,0.1141678407507504
S_noise,5,505,S_01,100,0,0.314300653476828,0.009715526750007555,0.31422600613030405,0.3074704415206933,0.32073749894968034,0.013267057428987039,0.294729858734558,0.3375397118503281
S_input,5,505,S_01,100,0,0.07555387763852577,0.0024791723002366853,0.07553067018128715,0.07387263695566852,0.07714531816514969,0.003272681209481168,0.07059122886188245,0.08114519386893826
S_noise,5,505,S_02,100,0,0.2316888913975044,0.009999158261248234,0.23117245577209816,0.22456104390658194,0.2390615277589085,0.014500483852326551,0.2102504778822542,0.2538592782840804
S_input,5,505,S_02,100,0,0.05566888911850607,0.0024525829794976614,0.05568852344026952,0.05403700120012908,0.057193429864640564,0.0031564286645114834,0.05003223992312535,0.06185113373982925
S_noise,5,505,S_03,100,0,0.55542237490519,0.010394922214621833,0.5546745292867221,0.5483594846186757,0.5621229105958947,0.013763425977219024,0.533328719794337,0.5792027865138677
S_input,5,505,S_03,100,0,0.13336333130490896,0.0027118098975724507,0.13302341631473225,0.13143919687638206,0.1351436123495793,0.003704415473197248,0.12748112603680087,0.13984810192860658
S_noise,5,505,S_04,100,0,0.4988106815896185,0.00952265610623039,0.49813110940055105,0.49218745700378264,0.5049242136941671,0.012736756690384432,0.47901681249907524,0.5217577422348738
S_input,5,505,S_04,100,0,0.1197829817835695,0.002321278389191228,0.11947894652968552,0.11824734439507671,0.12110981909255353,0.002862474697476816,0.11525500138486282,0.1267331778505721
E_noise,10,8128,,100,0,1.779538525401885e-15,4.916987219143885e-16,1.7336408218473558e-15,1.4891170136327108e-15,2.027861095891105e-15,5.387440822583944e-16,8.099186945848978e-16,3.852654306405674e-15
E_input,10,8128,,100,0,1.1092571535091261e-06,6.573289719743237e-07,1.0628584911284192e-06,7.045913432475232e-07,1.3221478076962004e-06,6.175564644486772e-07,5.6071017163544104e-08,3.6801888296425062e-06
I_noise,10,8128,,100,0,0.3742375375835039,0.007783872049300805,0.3754429285845832,0.36841321093155444,0.3797275998889644,0.011314388957409938,0.35518359420102685,0.3908207985565704
I_input,10,8128,,100,0,0.034037128940275364,0.0007211223214157836,0.0341494808062861,0.03347325528134506,0.03451906205139622,0.001045806770051158,0.03224302354663798,0.03549226411312963
S_noise,10,8128,S_00,100,0,0.45279036567100023,0.00753543847842969,0.4526144277279075,0.4484882446279382,0.4587019430275202,0.010213698399582027,0.43170341042865534,0.47090111714799293
S_input,10,8128,S_00,100,0,0.04114694726617038,0.0007210563938199837,0.04114513493653002,0.0407322401831919,0.041697793756839435,0.0009655535736475332,0.03909534629702867,0.04260653051448135
S_noise,10,8128,S_01,100,0,0.31391552459734784,0.008738081655157326,0.3140099668287788,0.30837410220160844,0.31917888047383114,0.010804778272222704,0.29374918250233667,0.3416649823913116
S_input,10,8128,S_01,100,0,0.02855390421740862,0.0008081755645181155,0.02857878891034455,0.02804002182773546,0.029049498300494574,0.0010094764727591153,0.026646810549065137,0.030968373491126796
S_noise,10,8128,S_02,100,0,0.23215272399145503,0.008856471559484559,0.23161388699514437,0.2273133226148301,0.23785893562196173,0.010545613007131638,0.2107676221519723,0.25431409096276486
S_input,10,8128,S_02,100,0,0.0211107978178927,0.000838430397663809,0.02103197383271123,0.020612815361969336,0.02162718031192764,0.0010143649499583032,0.01933940149974465,0.02334603840561385
S_noise,10,8128,S_03,100,0,0.5562966451816552,0.008859236320930679,0.5571223902841292,0.5503756002135324,0.5630784046129198,0.012702804399387424,0.5360887585651617,0.5772565891988654
S_input,10,8128,S_03,100,0,0.05058578836518789,0.0008331875105371442,0.050573463823341956,0.04998315734355543,0.05118582811598289,0.0012026707724274652,0.048620890253695224,0.052706940368911354
S_noise,10,8128,S_04,100,0,0.4995804198153295,0.00782191697831313,0.5003721246810361,0.49402454262711354,0.5053631535688488,0.011338610941735217,0.48276113499317586,0.5189986461422416
S_input,10,8128,S_04,100,0,0.045425048846925116,0.0007269126664495602,0.04553831139874584,0.044914454558365874,0.04591829710409826,0.0010038425457323877,0.043459171732908856,0.04712492041467974
E_noise,10,101,,100,0,1.7884588230161313e-15,5.089403511534214e-16,1.757982878221978e-15,1.4789605886598385e-15,2.097017945245893e-15,6.180573565860545e-16,8.492188859704552e-16,3.580262104483333e-15
E_input,10,101,,100,0,1.1082779183465805e-06,6.587061630347831e-07,1.0680825971279097e-06,7.036721195689007e-07,1.3196182690059493e-06,6.159461494370486e-07,5.616654643467902e-08,3.7045059871935158e-06
I_noise,10,101,,100,0,0.37442653677837584,0.008731497699302471,0.3750984491175767,0.3684037130624677,0.37936716146579236,0.010963448403324638,0.3554823161322632,0.4007841025368404
I_input,10,101,,100,0,0.03409121549257788,0.0008172481051954607,0.034104557575171085,0.03355597745672399,0.03459578101130487,0.00103980355458088,0.03220802086787617,0.03653928544749752
S_noise,10,101,S_00,100,0,0.45361607759506045,0.00964929102045731,0.45296906386739183,0.44870643602307775,0.4588297634661799,0.010123327443102126,0.43358821537565023,0.48316159670792974
S_input,10,101,S_00,100,0,0.041258438952248365,0.0009162878807828194,0.04121514168526208,0.040759014823307856,0.041736068165399515,0.0009770533420916591,0.039305512461683303,0.04408553124280644
S_noise,10,101,S_01,100,0,0.3131097184047073,0.010695301002365923,0.31195008566810956,0.3059127955839718,0.3188760801927739,0.01296328460880214,0.2928241274358279,0.34116224139236695
S_input,10,101,S_01,100,0,0.02845798783069673,0.0009666244774465887,0.028372799331230884,0.027804310669490212,0.0289750679298739,0.0011707572603836883,0.026533803808688194,0.03124217026816338
S_noise,10,101,S_02,100,0,0.2304910576888197,0.009874083945605676,0.23085027315026718,0.22374618062826415,0.23582394775812288,0.012077767129858724,0.21026171385852158,0.2571174672855323
S_input,10,101,S_02,100,0,0.020964907142714043,0.0008971315221934054,0.02095611259704671,0.02028613599522189,0.021382857922834033,0.0010967219276121418,0.019086616759847106,0.02331260535519836
S_noise,10,101,S_03,100,0,0.556444691930515,0.01005043231487408,0.5557146024475861,0.5502148630458019,0.5624393434983438,0.012224480452541875,0.5342531165950173,0.586462254906637
S_input,10,101,S_03,100,0,0.05060211664615177,0.0009326815705094833,0.05049644103426165,0.049994347751022225,0.05123464096243444,0.0012402932114122175,0.048433054547827585,0.05318655942528637
S_noise,10,101,S_04,100,0,0.4999814646490642,0.009028632087198556,0.4987251326858998,0.49469267358726887,0.505884069960014,0.011191396372745133,0.4798608416862651,0.526772086812473
S_input,10,101,S_04,100,0,0.04545404077561429,0.0008417943516445253,0.045380275570237896,0.04494436222407678,0.04600260505425223,0.0010582428301754501,0.04359756477751481,0.04811000710864149
E_noise,10,202,,100,0,1.782633354568853e-15,5.184163090463728e-16,1.719596852312975e-15,1.4679502346433494e-15,2.0660590068515884e-15,5.98108772208239e-16,8.278581207397933e-16,3.721058970568635e-15
E_input,10,202,,100,0,1.1095774598308049e-06,6.607596771255929e-07,1.0648051122221487e-06,6.99881705360184e-07,1.3212719271387451e-06,6.213902217785611e-07,5.673611214209728e-08,3.7290881793915296e-06
I_noise,10,202,,100,0,0.3731906584693999,0.009772988731351066,0.3721873731720784,0.3665108082905739,0.3795688262850828,0.013058017994508897,0.3509192025598323,0.3978046612318546
I_input,10,202,,100,0,0.033931756498988795,0.0009476374948803211,0.03382298781260592,0.03328398605959566,0.034710427552967986,0.0014264414933723227,0.03166862668149353,0.036385941539358466
S_noise,10,202,S_00,100,0,0.4515268557333506,0.010335661721472223,0.45220294421542706,0.44399262499518133,0.45866985943567684,0.014677234440495512,0.42885517360412884,0.4782089107509541
S_input,10,202,S_00,100,0,0.04105954579663322,0.0009178745927193113,0.041152595098003036,0.040450685021654345,0.04168606393243116,0.0012353789107768173,0.03864416918600694,0.043656999917337624
S_noise,10,202,S_01,100,0,0.31327809108499827,0.010705652647101624,0.3120112925637812,0.30690991452607974,0.3205895865271257,0.013679672001045973,0.2861491423763562,0.34322285193518826
S_input,10,202,S_01,100,0,0.028474827554363077,0.0009655859059600815,0.028330273216364603,0.027854264492806757,0.029114376920266447,0.00126011242745969,0.0261508182892,0.03122108137487319
S_noise,10,202,S_02,100,0,0.2310705832855865,0.008916739099897293,0.23040769687179108,0.22551320098826644,0.23655057369518653,0.011037372706920096,0.20870470646698444,0.25676102394698763
S_input,10,202,S_02,100,0,0.021013689551157042,0.0008194148945051792,0.02086725978040853,0.020479373401653254,0.021521652451682072,0.001042279050028818,0.01900551849191004,0.02351153816824482
S_noise,10,202,S_03,100,0,0.5540533034842072,0.01143630774174339,0.5546521390722712,0.5463666879861697,0.5624043307020441,0.01603764271587438,0.529683672765898,0.5796436093646278
S_input,10,202,S_03,100,0,0.05036069697864179,0.0011031148998904162,0.05039012256075336,0.04950558325129778,0.05114229434749472,0.0016367110961969383,0.04804740009937169,0.0527554800350669
S_noise,10,202,S_04,100,0,0.49758849777121855,0.010287226082133848,0.49870723885024826,0.4907644720549762,0.5045488156661743,0.013784343611198069,0.4758820636099592,0.5208186851397699
S_input,10,202,S_04,100,0,0.045247937792390135,0.0009954809661773542,0.045298994181371136,0.04458903190037249,0.04591013998040961,0.0013211080800371172,0.04289237200961396,0.047221811874292946
E_noise,10,303,,100,0,1.7946530533337853e-15,5.175214464102771e-16,1.7499730621029966e-15,1.4601760076107678e-15,2.0661214079598837e-15,6.059454003491159e-16,8.007995498362919e-16,3.655719810800689e-15
E_input,10,303,,100,0,1.1076918687644156e-06,6.580256079920044e-07,1.0716622159864282e-06,7.004710766927871e-07,1.3102062617229472e-06,6.097351850301601e-07,5.5655753740092195e-08,3.6545544325891974e-06
I_noise,10,303,,100,0,0.37368649795080955,0.008316736261588742,0.3733776721408115,0.36913523226675793,0.3783276311578303,0.009192398891072373,0.34861615793073253,0.3978400674901157
I_input,10,303,,100,0,0.033955955264040064,0.0007992847281602389,0.033869156163455816,0.033547947674448075,0.03448604778619729,0.0009381001117492113,0.031867223112650174,0.035929773075542626
S_noise,10,303,S_00,100,0,0.45211653813143554,0.009013357984443568,0.4528098701551623,0.44624735231648416,0.45775345110909504,0.011506098792610886,0.42263734012168924,0.47338380825171505
S_input,10,303,S_00,100,0,0.04109568732298883,0.0008393150403262738,0.041075913662687646,0.04054571626004543,0.041597084509714874,0.0010513682496694418,0.03835894354653609,0.043142578459539255
S_noise,10,303,S_01,100,0,0.31472153941105985,0.011433607498662264,0.3141068621362421,0.30622352129957026,0.32342382542523573,0.017200304125665478,0.286319503050088,0.3449556867273623
S_input,10,303,S_01,100,0,0.028616220788366013,0.0010644085492000559,0.028562007185981092,0.02785178563803505,0.029380827672162248,0.0015290420341271989,0.025841296811743467,0.03155466552430606
S_noise,10,303,S_02,100,0,0.23295871045720667,0.010925434627943991,0.23165493364917905,0.225167918584579,0.23999683436287206,0.014828915778293067,0.2111760481340002,0.26223476406283674
S_input,10,303,S_02,100,0,0.02118490820923152,0.0010112644806142279,0.021117374307032845,0.02048226062904302,0.021870463580669602,0.0013882029516265812,0.018933022690700508,0.023833665769707867
S_noise,10,303,S_03,100,0,0.5554499879940831,0.011036806700725878,0.5551120909985566,0.5485229875028826,0.5636971674344372,0.015174179931554566,0.5202230040980045,0.5801466677219649
S_input,10,303,S_03,100,0,0.05050838305400843,0.001022692107008563,0.050449997424501944,0.04984414325198242,0.051279737839815535,0.0014355945878331139,0.047486531812724844,0.05280100229762962
S_noise,10,303,S_04,100,0,0.49863974463223926,0.009578582244905194,0.49861321792037083,0.4928142567705329,0.5059050705366486,0.01309081376611565,0.46806059393437943,0.5178676802982262
S_input,10,303,S_04,100,0,0.0453203581026754,0.0008725364123232837,0.045444096281964066,0.04476657707427252,0.04598275261670347,0.0012161755424309473,0.04270394398786905,0.047065210672193804
E_noise,10,404,,100,0,1.804359560703111e-15,5.158813506081527e-16,1.7276121181873977e-15,1.502553045826702e-15,2.118326846100516e-15,6.157738002738139e-16,7.942273425430152e-16,3.606140926393689e-15
E_input,10,404,,100,0,1.1085973514098268e-06,6.597505866456684e-07,1.063857116051663e-06,7.050698516036878e-07,1.3235710068060306e-06,6.185011552023428e-07,5.57123686736062e-08,3.65177425915296e-06
I_noise,10,404,,100,0,0.37460292643362314,0.008874770902704426,0.37405763834467354,0.36869981024727183,0.3801803758172716,0.011480565569999768,0.3522140027032696,0.39869884483415313
I_input,10,404,,100,0,0.03405483189312088,0.0008398304173155338,0.034033799590935984,0.033530145715554,0.034571677095416274,0.001041531379862272,0.03177819180134142,0.03619143647830541
S_noise,10,404,S_00,100,0,0.45328620157375693,0.008988150429014685,0.4544913231720366,0.44691359049041357,0.4597380212662585,0.012824430775844942,0.43001490914525214,0.47327126651533363
S_input,10,404,S_00,100,0,0.04123161064183796,0.0008138038925323979,0.04133051037060286,0.04062731024316148,0.04177639378772361,0.0011490835445621336,0.03929571230886423,0.04296601629412959
S_noise,10,404,S_01,100,0,0.31533553275657805,0.009502974552850933,0.3141881759033114,0.3095194905530962,0.32248646104349965,0.012966970490403462,0.28750673169937346,0.334572584376599
S_input,10,404,S_01,100,0,0.028699970510267372,0.0008670376546164326,0.0286105998038523,0.028204830183055685,0.029311407413005114,0.0011065772299494285,0.026083276789151278,0.03048667046517209
S_noise,10,404,S_02,100,0,0.23300169417066688,0.008567968828986295,0.23305044791260193,0.22626903087564937,0.23875493402877845,0.012485903153129085,0.2087696404461262,0.2498824422776
S_input,10,404,S_02,100,0,0.021168794768379365,0.0008111146179410263,0.021155805116699435,0.02059601192176735,0.021735483881851918,0.001139471960084567,0.019011448019925242,0.02277993836776558
S_noise,10,404,S_03,100,0,0.5564895269180148,0.010282846287509338,0.5577432985081482,0.5483129787286795,0.563792858892576,0.015479880163896564,0.5329879590569103,0.5789986473030597
S_input,10,404,S_03,100,0,0.050576206571816454,0.0009876115187133505,0.05063788021913311,0.04990059501104233,0.051377581931466354,0.0014769869204240213,0.048352336455216215,0.05263316362332069
S_noise,10,404,S_04,100,0,0.4996340956583476,0.009268598214507276,0.5007769429206296,0.49283142004258207,0.5063440218705069,0.013512601827924797,0.476322630132024,0.5195700078937037
S_input,10,404,S_04,100,0,0.045367703276579394,0.000875176702558948,0.04540486157645075,0.044706035143882605,0.045963625609927665,0.0012575904660450596,0.042972619926423004,0.047203616643570305
E_noise,10,505,,100,0,1.783071370395387e-15,4.8012037125002e-16,1.7330919893194532e-15,1.4868883323057395e-15,2.0994762594634557e-15,6.125879271577162e-16,8.310851548685762e-16,3.688691268978787e-15
E_input,10,505,,100,0,1.1079012948815545e-06,6.566102539042927e-07,1.0641661398473464e-06,7.07814991696492e-07,1.3266674361645937e-06,6.188524444681017e-07,5.571975898714788e-08,3.665431567915085e-06
I_noise,10,505,,100,0,0.37371617273229346,0.008567587456683207,0.3734693056225292,0.36785154484424587,0.3797302425304219,0.011878697686176054,0.35317049357435554,0.3951259304038847
I_input,10,505,,100,0,0.033987839893984975,0.0007804042937073009,0.03393120316654954,0.03345328344874839,0.03455361068316114,0.0011003272344127443,0.032063567570405245,0.035821152290211634
S_noise,10,505,S_00,100,0,0.45278323433263945,0.009594688574217069,0.4523207637041331,0.44654734017819503,0.45910967185690044,0.012562331678705407,0.43350204965077643,0.4772701805327654
S_input,10,505,S_00,100,0,0.041181942224489496,0.0008990860800449013,0.04120813566492244,0.040521963884345334,0.041793916497976216,0.001271952613630882,0.03934853629727323,0.04325588334296996
S_noise,10,505,S_01,100,0,0.3143006535887953,0.00971552691808744,0.3142260069707885,0.30747044170980253,0.32073749851330197,0.013267056803499433,0.294729859319028,0.3375397115011156
S_input,10,505,S_01,100,0,0.028584666774203397,0.0009145283722989139,0.028543882875096294,0.02799271624294225,0.029155603940531585,0.0011628876975893349,0.02675130624081562,0.030664090934439024
S_noise,10,505,S_02,100,0,0.23168889134873724,0.00999915832825223,0.23117245678232928,0.22456104311554884,0.23906152650424262,0.01450048338869378,0.2102504784507721,0.25385927863276714
S_input,10,505,S_02,100,0,0.021063943698923664,0.0009176046728910433,0.021058125689732355,0.02046612256938332,0.02166478585273878,0.0011986632833554597,0.018992911386870693,0.023296035504523478
S_noise,10,505,S_03,100,0,0.555422374844081,0.010394922424888143,0.5546745297164118,0.5483594849199919,0.5621229101526098,0.013763425232617976,0.5333287201513549,0.5792027872021884
S_input,10,505,S_03,100,0,0.05047319390262535,0.00099151388624456,0.05035900323890902,0.04977598607205796,0.05107113355693989,0.0012951474848819297,0.04832293232340711,0.05280198903195747
S_noise,10,505,S_04,100,0,0.49881068149738444,0.009522656105696841,0.49813110977664166,0.4921874554396201,0.504924213977362,0.012736758537741866,0.4790168129128953,0.521757743964551
S_input,10,505,S_04,100,0,0.045331909045969246,0.0008612683539224479,0.04521675685586965,0.0447427514641655,0.045795484232237324,0.001052732768071822,0.043616678046736496,0.047738439634250826
