epoch,train_loss,val_loss,val_macro_auroc,val_macro_ap,val_macro_f1_at_0p5,clean_count,clean_fraction,independent_count,independent_fraction,electrode_count,electrode_fraction,snr_20_count,snr_10_count,combo_RA_LA_LL_count,combo_V1_count,combo_V2_count,combo_V3_count,combo_V4_count,combo_V5_count,combo_V6_count,combo_RA_LA_count,combo_LA_LL_count,combo_RA_LL_count,actual_snr_db_count,actual_snr_db_mean,actual_snr_db_std,actual_snr_db_min,actual_snr_db_max,actual_snr_error_db_count,actual_snr_error_db_mean,actual_snr_error_db_std,actual_snr_error_db_min,actual_snr_error_db_max,rms_match_relative_error_count,rms_match_relative_error_mean,rms_match_relative_error_std,rms_match_relative_error_min,rms_match_relative_error_max,exposure_count,unique_records,exposure_min,exposure_max,order_sha256,epoch_seconds,elapsed_seconds
1,0.3532916305076878,0.3267506939833784,0.89784512920477,0.7555583991448762,0.6239627692039689,8561,0.5011121517209085,0,0.0,8523,0.49888784827909155,4381,4142,2116,727,727,686,713,701,740,710,682,721,8523,15.140208798556145,4.998033657670073,10.000000000934133,19.9999999137625,8523,-4.809409524297752e-08,1.0444017955602108e-07,-2.1492361668151716e-07,1.1559637869140715e-07,0,,,,,17084,17084,1,1,7b160a32602113665655291d4bb11f1c3439bd0a17bde695fc63c1bc3d9c8035,66.03191430005245,66.08243319997564
2,0.29622285264461107,0.3047740491383118,0.9074992985857993,0.778460776574564,0.6658965994738907,8517,0.49853664247248886,0,0.0,8567,0.5014633575275111,4332,4235,2174,661,699,704,746,751,710,705,717,700,8567,15.056612536615477,4.999679387454898,9.999999991485934,19.999999921603933,8567,-4.655249428550274e-08,1.046235363882453e-07,-2.0039643189306844e-07,1.1941399868931057e-07,0,,,,,17084,17084,1,1,702a970c07a7e06e15e3d63ca928870b3959ae324716c57a04a09209ef10dc5d,69.97916720004287,136.28105220000725
3,0.27745069884020224,0.29887190697244254,0.9104919399558804,0.7829268431693359,0.6912495917011678,8557,0.5008780145165067,0,0.0,8527,0.49912198548349335,4154,4373,2140,695,698,721,740,670,727,693,749,694,8527,14.871584336125421,4.998350566854553,10.000000000035724,19.99999991679981,8527,-4.2905892633291534e-08,1.0473042480189349e-07,-2.0360614882974915e-07,1.1355592732797959e-07,0,,,,,17084,17084,1,1,8a2ae16df489f5e9e49041b8a23d13f3888e3611260faabcdf64b5394b0c10b9,71.76293830003124,209.35611259995494
4,0.265213106002888,0.29444755801283523,0.9143284951741496,0.7925458983378146,0.7075039552112009,8404,0.49192226644813863,0,0.0,8680,0.5080777335518614,4318,4362,2246,691,764,667,664,691,741,734,758,724,8680,14.97465433304258,4.9999356554880965,10.000000004732923,19.999999902724362,8680,-4.483760371978469e-08,1.0481801645687497e-07,-2.017991889147197e-07,1.1772724306524651e-07,0,,,,,17084,17084,1,1,65c8914bec6fa9fcb9b27fff30635d223d8e25a47448a9572882e918ab53211f,66.54539630003273,276.08327119995374
5,0.2539593855974909,0.30460507202570614,0.9109839513897378,0.7878464984508492,0.6941395789972279,8627,0.5049754155935379,0,0.0,8457,0.4950245844064622,4266,4191,2073,730,732,762,664,698,718,664,724,692,8457,15.044341919150401,4.999803271342173,10.000000001529179,19.99999990659906,8457,-4.6085496623932514e-08,1.0462678573680511e-07,-2.0418256951870717e-07,1.1173954383991713e-07,0,,,,,17084,17084,1,1,6d73870553b0ed99b591cc90529451c8603dac4413e94d3154cd08fb5e4fe0a0,66.22038230008911,342.50298450002447
6,0.24428003699152623,0.30890468629519735,0.9142998881170203,0.7904960989066255,0.6956985683468367,8537,0.4997073284944978,0,0.0,8547,0.5002926715055023,4252,4295,2163,681,713,712,728,746,639,729,732,704,8547,14.974844929844112,4.999936617947138,10.000000003263203,19.999999914399723,8547,-4.5000863359691105e-08,1.0490800400961117e-07,-2.0643313192181267e-07,1.1615277450971462e-07,0,,,,,17084,17084,1,1,9a24f5970fb15a8502523e599a275410a899177e35b8f21de03f91c4fe6b2fa5,66.27926810004283,408.9354851000244
7,0.2340307544835751,0.3431931638817641,0.9086682428644608,0.7815886140482169,0.6716137550131054,8475,0.4960782018262702,0,0.0,8609,0.5039217981737298,4326,4283,2217,767,709,688,725,674,740,711,679,699,8609,15.024973818552995,4.99993752602835,9.999999991707796,19.999999903831007,8609,-4.600734908698217e-08,1.0494387981635502e-07,-1.9822557462134682e-07,1.1372250519059435e-07,0,,,,,17084,17084,1,1,0d1a841bd70049abf3fc32768bfe45d61f892a88b47f8beb0053acae4d72f276,66.1916594998911,475.3017415999202
8,0.22532651282618404,0.3317526404755424,0.9112974125828803,0.7837707840506535,0.6950069707439671,8556,0.5008194802154062,0,0.0,8528,0.49918051978459377,4293,4235,2071,751,723,697,715,720,714,718,733,686,8528,15.03400558264719,4.999884256600247,9.99999999634242,19.99999990519018,8528,-4.5870633841034974e-08,1.0459586359959605e-07,-2.0814967172100296e-07,1.2249277325793173e-07,0,,,,,17084,17084,1,1,c964f517867c7a51f4026e7bd789cf2e4f41595cea9a7469b9fc11428de2fc18,66.2754888999043,541.7242595999269
9,0.21378908830569907,0.34216521495652885,0.9029502998734819,0.7687130771716266,0.6428867253819733,8454,0.49484898150316087,0,0.0,8630,0.5051510184968392,4282,4348,2150,716,723,715,689,737,749,685,749,717,8630,14.96176125286467,4.999853673953638,10.00000000859633,19.99999990159057,8630,-4.4933706024943925e-08,1.0486903725606582e-07,-2.0127259503510686e-07,1.2099503621243457e-07,0,,,,,17084,17084,1,1,7d9523df1df85233b56ac723e5c6d8634af21d3daa80039bde81c22d25174c96,66.35824009997305,608.2475637999596
10,0.20520014359629482,0.323595148374961,0.9107535231178294,0.783194487369543,0.7080454423042547,8475,0.4960782018262702,0,0.0,8609,0.5039217981737298,4316,4293,2130,696,716,704,740,715,702,709,765,732,8609,15.013358067734657,4.999982051887001,9.99999998107046,19.99999990423592,8609,-4.5867386196077394e-08,1.0494156009173203e-07,-2.0827107505283493e-07,1.094408386137502e-07,0,,,,,17084,17084,1,1,a9c869fe50e8fcbd3c99d24bd71f2dc31368d27f55aa7f05fe2a4ab70ec57da0,66.4071545000188,674.8148387999972
11,0.1906918344983896,0.3882900210373444,0.9026288763563544,0.7593725692913899,0.6292835757625341,8543,0.5000585343011005,0,0.0,8541,0.4999414656988996,4356,4185,2123,744,693,669,727,701,732,705,726,721,8541,15.100105326482696,4.998997687095599,10.000000007136787,19.999999930549855,8541,-4.759527900582384e-08,1.0464629330068197e-07,-2.0398151789891017e-07,1.1513461117829138e-07,0,,,,,17084,17084,1,1,e538b8571529be78707de2e15d086388771c63a2d1329f2471289f8e37ebd544,66.2821747000562,741.2545079999836
12,0.1806110106050982,0.38227249619456394,0.9042876660352732,0.7669570638281792,0.6620873710775166,8575,0.5019316319363146,0,0.0,8509,0.4980683680636853,4271,4238,2118,743,679,703,743,728,696,680,668,751,8509,15.019391186964027,4.999962293832435,10.000000001264564,19.99999990786764,8509,-4.584828821090296e-08,1.0483985398010749e-07,-2.124352924681716e-07,1.2708775543046613e-07,0,,,,,17084,17084,1,1,9504d1207884869acfd35df03ac58b8d544ce2bcd9601830a38e4c2c539a3c40,66.19603909994476,807.598908899934
13,0.1686324779824333,0.37606974377992103,0.9038283977741287,0.7716066135768793,0.6811999992370119,8551,0.500526808709904,0,0.0,8533,0.499473191290096,4314,4219,2184,694,683,736,724,693,714,684,729,692,8533,15.055666190056531,4.999690013617855,9.999999999805889,19.99999991255951,8533,-4.690585067693527e-08,1.0458001163746319e-07,-2.110416268408244e-07,1.1744023531434777e-07,0,,,,,17084,17084,1,1,3a8fa19ea31d5a8bcde347adc6e8796566529c1abda2e4532b879c71386ad70b,66.36989800003357,874.1198972999118
14,0.15583291610393668,0.3969317899612434,0.9017948342719029,0.7705574206693199,0.6812539927159897,8505,0.4978342308592835,0,0.0,8579,0.5021657691407164,4228,4351,2151,686,708,718,691,743,700,738,692,752,8579,14.928313279282603,4.999485971956504,10.000000000636923,19.999999905039786,8579,-4.394854403421353e-08,1.0444544835740274e-07,-2.051673924086117e-07,1.2410685101826857e-07,0,,,,,17084,17084,1,1,8e1692583d4de1e6a728bb4bd87f26315718766197b06d9aba8c4815f22386bd,66.63166379998438,940.9101007999852
15,0.14579119959122624,0.41812951242046054,0.900571927446711,0.7619154125201885,0.6637346584807681,8517,0.49853664247248886,0,0.0,8567,0.5014633575275111,4269,4298,2203,705,745,711,677,718,721,676,680,731,8567,14.983074543186934,4.9999712493312884,10.000000003525297,19.999999907375216,8567,-4.5350476822933085e-08,1.0438498754792989e-07,-2.0190080363136076e-07,1.1441689373725694e-07,0,,,,,17084,17084,1,1,e535c09a409735f7e95c1a8f6b4ac3cb27989055be460d421d4e9354bb711f16,66.44632109999657,1007.5156031999504
16,0.13708179672075305,0.4287694671780621,0.8957162469838182,0.7538172118239779,0.6735306926465272,8619,0.5045071411847343,0,0.0,8465,0.4954928588152657,4218,4247,2162,692,640,725,709,679,730,725,671,732,8465,14.982870599025247,4.999970554604514,10.000000001470175,19.999999905748062,8465,-4.480227948722527e-08,1.046030887284114e-07,-2.0458375971088572e-07,1.1762440088602943e-07,0,,,,,17084,17084,1,1,ad625687cc74a8e33d1029ecd2da499575dea7cf006ee6094a4c90789299dd88,66.66937400004826,1074.3354512000224
17,0.12321427009530493,0.41847414742089384,0.8932479220677472,0.7527360490311789,0.6775049654595008,8519,0.49865371107468975,0,0.0,8565,0.5013462889253102,4292,4273,2140,715,706,728,733,724,704,734,676,705,8565,15.011091606492416,4.999987593700415,10.000000002570054,19.99999989482191,8565,-4.557997061388949e-08,1.0458500256038779e-07,-2.0274286782751005e-07,1.1710398162279034e-07,0,,,,,17084,17084,1,1,542bad616272a7cc06fd6caf9b5eaaa3678c2a81a54c20fcc5b3ce5e460c696d,66.4685866999207,1140.9655776999425
18,0.11462390904989267,0.43925311828148444,0.8945599829055734,0.7624327154595324,0.6974465581839342,8585,0.5025169749473192,0,0.0,8499,0.4974830250526809,4215,4284,2173,668,660,721,687,740,713,718,732,687,8499,14.959406944619246,4.99983511389726,10.0000000052495,19.999999906188553,8499,-4.443828876653915e-08,1.0491106849981669e-07,-2.0025019509262165e-07,1.218573313366278e-07,0,,,,,17084,17084,1,1,d96a7714afed8b700b66e9ebe75883bbe5c6ab393a67f1031bc646dbc13ac2b8,66.50295550003648,1207.6758994000265
19,0.10314384007573937,0.4805952825784017,0.8911393171530413,0.7546428401851328,0.6695949131780254,8609,0.5039217981737298,0,0.0,8475,0.4960782018262702,4294,4181,2124,713,748,688,682,665,721,691,716,727,8475,15.06666661985941,4.999555431974263,9.999999990393254,19.99999991114969,8475,-4.6807256510647437e-08,1.0460709337082202e-07,-2.053268168822342e-07,1.0972119035557171e-07,0,,,,,17084,17084,1,1,75caf109b36e9a433db345649a650c7aea2c1a88e1abe464b2a0a01082892380,66.45178640005179,1274.2816955000162
20,0.09419381808122353,0.47317146935534055,0.8921632596153938,0.7493092192513762,0.6840870676223437,8536,0.4996487941933973,0,0.0,8548,0.5003512058066026,4334,4214,2176,722,711,711,737,692,723,693,676,707,8548,15.070191810925179,4.999507182102638,9.999999995689802,19.999999907042813,8548,-4.6819323777567204e-08,1.0471343806835653e-07,-2.0653320120800345e-07,1.1203515448698909e-07,0,,,,,17084,17084,1,1,447d919b1545457380ce55cfc06034e0fb462b97c586e7336ea3d96dedf106f5,66.73080489994027,1341.1644707999658
21,0.08960454482729109,0.5261175445552642,0.8995886109764821,0.7607352535764512,0.6889882605578642,8508,0.4980098337625849,0,0.0,8576,0.5019901662374151,4275,4301,2150,662,760,702,718,704,714,726,708,732,8576,14.98484137286576,4.999976917931824,9.999999998267313,19.99999991373159,8576,-4.504468592238512e-08,1.0455323533082966e-07,-2.1479390710510415e-07,1.1299565905176223e-07,0,,,,,17084,17084,1,1,d69c82017db74676daa5369371dd9fca3b48e1b0593666fe54855109ea3ccd8e,67.60599839990027,1408.9464183999225
22,0.08276772175487493,0.49497164023444684,0.8971932612361865,0.757083985850521,0.6923364107548778,8393,0.4912783891360337,0,0.0,8691,0.5087216108639663,4339,4352,2129,747,689,798,774,728,667,697,759,703,8691,14.992520953222371,4.999994302422188,9.999999999440405,19.999999914343526,8691,-4.5511953710188236e-08,1.0482669399729808e-07,-2.0767502206808786e-07,1.1820463186040797e-07,0,,,,,17084,17084,1,1,bad9f909dc2c606410d60702bc7b1fd9a5c094319178acf33c298ebac0dd4556,66.67703430005349,1475.7917563000228
23,0.07616455215385942,0.521282670410126,0.8924264906697689,0.7544369232699536,0.6916672579787757,8650,0.5063217045188481,0,0.0,8434,0.49367829548115194,4224,4210,2102,711,670,736,731,714,647,704,673,746,8434,15.008299693598369,4.999993007455962,9.999999987897365,19.999999916266702,8434,-4.555268595244305e-08,1.0476352546470024e-07,-2.0341903805842776e-07,1.3688571343095646e-07,0,,,,,17084,17084,1,1,e2dd568def4df3773b81f1aef2fa42426eea4616e962a225a2b207bd2c196205,66.25301579991356,1542.201952299918
24,0.07246629621120952,0.5611492750362492,0.8966434739452038,0.7530913086737928,0.684270906554062,8646,0.5060875673144463,0,0.0,8438,0.49391243268555374,4277,4161,2111,722,708,679,709,723,665,691,718,712,8438,15.068736620755834,4.9995274006045864,10.00000000277669,19.999999914600966,8438,-4.6700909224089716e-08,1.0492068897419292e-07,-2.2227436247135302e-07,1.1857433257489447e-07,0,,,,,17084,17084,1,1,ccc468fd17453743a8c426fd4860a41e943dc3907d9fbccbffa912e3080c2218,67.11341029999312,1609.4843282999936
25,0.07291158552479336,0.5488933187606506,0.8938063835116885,0.7495892234798612,0.6758477971020294,8559,0.5009950831187076,0,0.0,8525,0.49900491688129245,4177,4348,2109,727,745,732,762,687,713,710,661,679,8525,14.89970670162855,4.99899392113366,9.999999996824581,19.999999921087618,8525,-4.323948615005495e-08,1.047788647395552e-07,-2.1185630316722381e-07,1.197546932729665e-07,0,,,,,17084,17084,1,1,5311a64338232da15bdc5b355fb814c3fa45b891356fd4ffbfc717a52d0d48ca,66.88786820007954,1676.554902600008
