epoch,train_loss,val_loss,val_macro_auroc,val_macro_ap,val_macro_f1_at_0p5,clean_count,clean_fraction,independent_count,independent_fraction,electrode_count,electrode_fraction,snr_20_count,snr_10_count,combo_RA_LA_LL_count,combo_V1_count,combo_V2_count,combo_V3_count,combo_V4_count,combo_V5_count,combo_V6_count,combo_RA_LA_count,combo_LA_LL_count,combo_RA_LL_count,actual_snr_db_count,actual_snr_db_mean,actual_snr_db_std,actual_snr_db_min,actual_snr_db_max,actual_snr_error_db_count,actual_snr_error_db_mean,actual_snr_error_db_std,actual_snr_error_db_min,actual_snr_error_db_max,rms_match_relative_error_count,rms_match_relative_error_mean,rms_match_relative_error_std,rms_match_relative_error_min,rms_match_relative_error_max,exposure_count,unique_records,exposure_min,exposure_max,order_sha256,epoch_seconds,elapsed_seconds
1,0.4679251281669731,0.45949187799802144,0.8262776952923506,0.6043530280943246,0.41072066688293507,8535,0.4995902598922969,0,0.0,8549,0.5004097401077031,4290,4259,2162,725,734,684,745,717,710,688,710,674,8549,15.018130729760687,4.9999670234613705,9.999999995471569,19.99999990523917,8549,-4.576861393387304e-08,1.0472924297254657e-07,-2.056277317308286e-07,1.226675259147214e-07,0,,,,,17084,17084,1,1,1e1263ade08efecb0a9a1d84f8ddd06b043a6fee9d3462bd2b7c7a84a43f3dc0,41.28917010000441,41.3244387001032
2,0.3670672192503211,0.3664682723602622,0.8738960242969942,0.7081730426367346,0.6240382766071846,8555,0.5007609459143058,0,0.0,8529,0.4992390540856942,4276,4253,2078,730,728,711,708,693,702,757,725,697,8529,15.013483363896386,4.999981715549306,10.000000004327152,19.999999909590063,8529,-4.564752591145009e-08,1.0501601225258373e-07,-2.2371705910018136e-07,1.1676655020664839e-07,0,,,,,17084,17084,1,1,e4ee8dc433e89d18394bb8d2c1d9ffd22e126daf8bfba997bc78a910e33e319a,45.13320309994742,86.66127270006109
3,0.3370581450757643,0.36337459104036685,0.8838624635397634,0.731621572824707,0.608977899039538,8482,0.49648794193397333,0,0.0,8602,0.5035120580660267,4177,4425,2196,723,719,675,727,715,669,704,725,749,8602,14.855847434876901,4.997921469029737,9.999999993582115,19.999999899077,8602,-4.245395208925621e-08,1.047963232838758e-07,-2.065242448168192e-07,1.4379186552559986e-07,0,,,,,17084,17084,1,1,731d0e55a5c33354760951f661312787542f8bc7e51f541c346a7b7445317b89,38.97130659990944,125.85908560000826
4,0.3211217723303616,0.3250198803932336,0.8947139420489719,0.7517325765006,0.6699349711572058,8523,0.49888784827909155,0,0.0,8561,0.5011121517209085,4253,4308,2162,684,675,746,753,700,699,728,690,724,8561,14.967877539419264,4.9998967100966905,10.000000000769898,19.99999990475269,8561,-4.497507893178385e-08,1.046713840906869e-07,-2.080972087981081e-07,1.1764822005488895e-07,0,,,,,17084,17084,1,1,b7ef6894b39e09be22728a0f7d42c930dc474af91d50ce311ca52a26624d02d5,38.83329360000789,164.8363305000821
5,0.3116252480178995,0.3363281232890745,0.8970850722098888,0.759371568171581,0.6597162305489056,8605,0.503687660969328,0,0.0,8479,0.49631233903067196,4153,4326,2124,689,689,731,728,661,700,736,729,692,8479,14.897983209465863,4.998959046154364,10.000000004483232,19.999999918868067,8479,-4.327620435743172e-08,1.0460261642691646e-07,-2.0650102783292823e-07,1.1357635010256217e-07,0,,,,,17084,17084,1,1,16b772c13f722eac40a59b950d45477d22c2bbfef5479510c7e9f7c3bb377530,39.001899800030515,203.98088280006777
6,0.3040616991047668,0.32798914354423,0.8997357314475695,0.7651216470018456,0.6783790336579106,8653,0.5064973074221494,0,0.0,8431,0.4935026925778506,4263,4168,2101,716,681,715,680,720,687,695,720,716,8431,15.05633965214546,4.999682469921682,9.999999997908319,19.999999909847617,8431,-4.658541428027521e-08,1.0463605313032525e-07,-2.059064776460673e-07,1.0702325425882009e-07,0,,,,,17084,17084,1,1,0459fdb30625629a62aef11a6421030140b9849d858970e56538eb96625c6cad,40.33269760000985,244.453756300034
7,0.2982558827507945,0.3396206831443232,0.9024504936557303,0.7692876826541679,0.6756587847488765,8592,0.5029267150550223,0,0.0,8492,0.49707328494497777,4197,4295,2189,722,645,718,696,714,737,672,691,708,8492,14.942298589799854,4.999666940266636,10.000000002852342,19.999999903733247,8492,-4.420862364351548e-08,1.0468271007382744e-07,-2.0607608419709322e-07,1.3285146849284502e-07,0,,,,,17084,17084,1,1,d3da63a101790f4eb7a4e82e43456611b7ebaee0297ab6c961e4dacedc9ccb39,40.92137770005502,285.52132460009307
8,0.2915145209740766,0.3410652345680013,0.9035336465957611,0.7734458043050875,0.6591852281579569,8490,0.49695621634277687,0,0.0,8594,0.5030437836572231,4275,4319,2080,700,676,701,738,735,726,780,742,716,8594,14.974400699981326,4.99993436319926,9.999999999490615,19.999999902031384,8594,-4.4724283755269214e-08,1.0495748209908517e-07,-2.0004978651400052e-07,1.1552216783172753e-07,0,,,,,17084,17084,1,1,acf14fbf35837dd130770b797e0d42ea516628671403e5280d64afd303a603f1,39.11690979998093,324.78653210005723
9,0.2883878058514699,0.3347399349759254,0.905388658306229,0.7765661960843027,0.6717036846164312,8489,0.49689768204167645,0,0.0,8595,0.5031023179583236,4353,4242,2125,722,732,702,697,693,737,745,734,708,8595,15.064572378937223,4.999582919007887,10.000000001339505,19.999999902613073,8595,-4.6891748388699674e-08,1.0456678009004003e-07,-2.0841362058376944e-07,1.0828864560608054e-07,0,,,,,17084,17084,1,1,82c6f240d18dad21aad4925be57e694031c118096dc3a862409ae403455b513f,39.67064209992532,364.60454600001685
10,0.2840372298311445,0.31417687663605365,0.9094766524443738,0.7844429668834986,0.696015854438483,8586,0.5025755092484195,0,0.0,8498,0.4974244907515804,4233,4265,2106,762,671,783,706,660,710,701,707,692,8498,14.981171995424654,4.999964446777617,10.000000003669866,19.999999907217088,8498,-4.505545903343917e-08,1.0469510368123128e-07,-2.0433885694615128e-07,1.1553680678844103e-07,0,,,,,17084,17084,1,1,cbe9c9b674f501411addb0e825f55d2fcf7071b36111a7828011bede0c1013e9,39.280000400030985,404.02317060006317
11,0.27861587786613096,0.31813853393063185,0.910367927540151,0.7861289861223539,0.6696718562854518,8460,0.4952001873097635,0,0.0,8624,0.5047998126902364,4334,4290,2134,703,702,732,679,709,720,755,787,703,8624,15.025510157997317,4.999934818669644,10.000000007846324,19.999999901680372,8624,-4.608431630387738e-08,1.0461612422515076e-07,-2.1302766128883377e-07,1.2937302429349984e-07,0,,,,,17084,17084,1,1,70e744983ac58fba895671e398d29011b0a855914beefd13da8099e2dfafb532,38.77027959993575,442.9242788000265
12,0.27605352480443346,0.3238525091768533,0.9111033653637921,0.7893631084654302,0.6845575486956156,8552,0.5005853430110044,0,0.0,8532,0.49941465698899556,4255,4277,2108,703,675,716,722,727,700,756,718,707,8532,14.987107315402103,4.999983274019531,10.000000003780274,19.99999991835265,8532,-4.5122980480707907e-08,1.0471501775486438e-07,-2.2043244740643786e-07,1.1858010395826568e-07,0,,,,,17084,17084,1,1,046889660a5ac341cacd896bcf42960c4df959892fbfbe080559b8de1eae1288,38.63007660000585,481.6885813000845
13,0.27311785194304977,0.32364311133826434,0.9124648205713211,0.7904627049079175,0.6893610480652566,8492,0.49707328494497777,0,0.0,8592,0.5029267150550223,4306,4286,2136,762,687,722,783,704,678,689,732,699,8592,15.011638687940849,4.999986350182986,9.999999995312784,19.99999991336659,8592,-4.576492357330967e-08,1.0458652985266717e-07,-2.1102491132296564e-07,1.0928690130640462e-07,0,,,,,17084,17084,1,1,bdf088512e15fde9f53f363ece43bae2a40edecd22b63676e4644f2b3ed345b6,38.68393440009095,520.5131148000946
14,0.2718295487286307,0.30003826502096065,0.9156745336009985,0.7951305937495274,0.7091240521207778,8570,0.5016389604308125,0,0.0,8514,0.49836103956918754,4215,4299,2096,702,704,723,722,686,703,734,702,742,8514,14.950669440994067,4.999756540148667,9.999999997443588,19.99999990398978,8514,-4.4559137845646456e-08,1.0477629312704894e-07,-2.1348679624111355e-07,1.2065498999902502e-07,0,,,,,17084,17084,1,1,04dc68ccd7544745cc1e7f267ad3bd768be0b97f70c418d4c5c1ac71ef7d6036,45.96104930003639,566.6344912000932
15,0.27026072852060573,0.33719452032394087,0.9125995655861636,0.7901375495881233,0.6802577174369578,8605,0.503687660969328,0,0.0,8479,0.49631233903067196,4228,4251,2075,695,699,713,699,766,718,699,676,739,8479,14.98643703454543,4.999981500520234,9.99999999684002,19.999999920072607,8479,-4.5298892131515205e-08,1.0495902823950274e-07,-2.0600985095597935e-07,1.087516299236313e-07,0,,,,,17084,17084,1,1,0c3d8c08cba353a60ac5ee89d3951f8c370da8316fd5e00fbe1af46eeabbc89a,40.00793830002658,606.7851484999992
16,0.266227098259036,0.2937951491518989,0.9177130847779246,0.8004027723828269,0.7104264131001095,8503,0.4977171622570826,0,0.0,8581,0.5022828377429174,4326,4255,2145,703,734,777,683,741,686,731,697,684,8581,15.04137042337959,4.999828741364809,9.999999992501309,19.999999917571923,8581,-4.6262643580570296e-08,1.0492628221898064e-07,-2.1155888418888935e-07,1.1409094291536803e-07,0,,,,,17084,17084,1,1,8bf34bca045dec81fbc3a78cbeb2e9a516cb20f541fcd5c77251cbdff4780908,39.72682079998776,646.6406421000138
17,0.26593830891946135,0.3224230130920872,0.9164758709173226,0.7946745938796662,0.6967085177319238,8611,0.5040388667759307,0,0.0,8473,0.4959611332240693,4200,4273,2139,697,675,703,712,713,725,681,701,727,8473,14.956921942801594,4.999814321236969,9.999999985228285,19.999999904290156,8473,-4.468807649022756e-08,1.0460789424747879e-07,-2.052193295298821e-07,1.15323743443696e-07,0,,,,,17084,17084,1,1,6cbb1c05f89d9612d5046eaee2c71610af2fd4e98c8c3b08b41caaf824a08da7,39.157924900064245,685.9322698001051
18,0.2611331267801779,0.32547586645240106,0.9168132162859273,0.797990409778287,0.6990624392516048,8457,0.4950245844064622,0,0.0,8627,0.5049754155935379,4298,4329,2110,722,718,717,705,701,714,751,745,744,8627,14.982033106628036,4.999967614999813,9.999999996860744,19.999999911258097,8627,-4.510489439921767e-08,1.0492845010719713e-07,-2.092220228178121e-07,1.174705648310237e-07,0,,,,,17084,17084,1,1,226d63c797453383551ff4fff20c28bbb737a80ada53f64338aed0e8ceafe9a3,38.71659780002665,724.7704950000625
19,0.2611770502328035,0.3306801882950035,0.9151330345376849,0.7960564874094468,0.6776193929095545,8492,0.49707328494497777,0,0.0,8592,0.5029267150550223,4188,4404,2145,689,728,762,679,749,707,710,731,692,8592,14.874301633044057,4.998419639834852,9.999999998687116,19.999999917392238,8592,-4.293359721475894e-08,1.0439569515309412e-07,-2.0415891199832004e-07,1.1495684049123156e-07,0,,,,,17084,17084,1,1,11b4127dba2713a9f9afbbe9004920401f86ad01264cbb392a1f1ca4597daa42,38.531372600002214,763.4299640000099
20,0.2597381841575365,0.2886111652417818,0.9208561098960001,0.8027783972981899,0.7168260084223423,8489,0.49689768204167645,0,0.0,8595,0.5031023179583236,4257,4338,2134,745,761,704,733,701,719,688,707,703,8595,14.95287953674752,4.9997778579881205,9.99999999305957,19.999999919626266,8595,-4.4404311231537914e-08,1.045318637507138e-07,-2.1085229207074008e-07,1.172350909683928e-07,0,,,,,17084,17084,1,1,d6cc6029cd83a670ac9a2e306950871df36eb0cf4b93d8f5a6bb63a9aed9c5fc,38.529019200010225,802.0990914000431
21,0.2582853006007548,0.2905015748233742,0.9213441624685682,0.8038675475257552,0.7187678375119969,8527,0.49912198548349335,0,0.0,8557,0.5008780145165067,4350,4207,2111,734,729,718,680,701,725,726,704,729,8557,15.083557274242791,4.999301664497522,9.99999999582014,19.999999919465488,8557,-4.7248385737562205e-08,1.0497107857773221e-07,-2.0566908887076352e-07,1.1726442394888181e-07,0,,,,,17084,17084,1,1,ccb91b53b21c6c7fcdf24c2f39c7831b9026461ffb51ebc8769235639e081e5a,39.34664609993342,841.5945669000503
22,0.25625031595136877,0.3461827230809008,0.9157170911508393,0.795951747434884,0.6890001879720877,8499,0.4974830250526809,0,0.0,8585,0.5025169749473192,4365,4220,2123,728,700,740,709,694,736,734,714,707,8585,15.084449574382052,4.999286671451759,10.000000006111616,19.99999990886068,8585,-4.705067991879112e-08,1.046132950949867e-07,-2.082713308482198e-07,1.1415960443628137e-07,0,,,,,17084,17084,1,1,8cac562fcd4757db89dfeb82c17692fb083328bf6109984b443757375e3e011b,38.77592739998363,880.5210022000829
23,0.2557224434011297,0.28688924590894693,0.9230213849912132,0.8074053161952923,0.7271751770408523,8598,0.5032779208616249,0,0.0,8486,0.49672207913837507,4126,4360,2133,659,747,711,714,769,720,691,658,684,8486,14.862125811567346,4.998098606658261,10.000000002915062,19.999999907355782,8486,-4.2780992820723146e-08,1.0465408734612466e-07,-2.0836216663155938e-07,1.1273710498471701e-07,0,,,,,17084,17084,1,1,231c52b1524d7411ab1165431d800eb656bf18107735f99159c4266f7a773c2f,39.078415900003165,919.7255407000193
24,0.2510180176420866,0.3028207233545387,0.921403270708932,0.8062230214403778,0.7060558822049126,8520,0.49871224537579023,0,0.0,8564,0.5012877546242098,4330,4234,2146,703,680,688,749,734,707,735,702,720,8564,15.0560485288095,4.999685741902466,10.000000005457386,19.999999904487247,8564,-4.6622540663763776e-08,1.0473912646842729e-07,-2.095385909228753e-07,1.1778916331195433e-07,0,,,,,17084,17084,1,1,58ef1324cc4b582278890aebc980fc1352f805c1973f74f9e914f88eb3ef8c17,39.30822340003215,959.1914088000776
25,0.2504364286735392,0.3050759727446031,0.9218347410000319,0.8073951838659126,0.7158821454840236,8410,0.4922734722547413,0,0.0,8674,0.5077265277452587,4370,4304,2145,702,688,735,764,708,767,722,695,748,8674,15.038044685193126,4.999855153963606,9.999999992452175,19.999999908993928,8674,-4.6188012487055274e-08,1.0459118721633267e-07,-2.0821942570137253e-07,1.280160120131768e-07,0,,,,,17084,17084,1,1,eee9dd522f5a92dd3101d65b5fcaadf394c139dc38b20289f91b68c030e08d89,38.8544164999621,998.1841904000612
