object,snr,noise_seed,mode,n_valid,n_null,mean,sd,median,q1,q3,iqr,min,max
clean,,,,2158,0,1.3662119222710647e-06,8.896300041519708e-07,1.1973709964185677e-06,7.81988307767661e-07,1.7405169328016194e-06,9.585286250339584e-07,2.4953678499437863e-08,1.1905967552934596e-05
E_noise,0,8128,,2158,0,6.184417593330739e-16,6.950330234298348e-17,6.081998285756236e-16,5.697184017681971e-16,6.579882050273478e-16,8.826980325915072e-17,4.524859606422407e-16,9.221570854893175e-16
E_input,0,8128,,2158,0,6.831682512225041e-07,4.4465908330336916e-07,5.993991124780795e-07,3.9016406187152115e-07,8.682386892156896e-07,4.780746273441684e-07,1.2456462601930515e-08,5.894167469859572e-06
I_noise,0,8128,,2158,0,0.3743007734352041,0.00871986732544731,0.37417626517279134,0.3684311489148296,0.3801765412295413,0.011745392314711722,0.34622078714689597,0.40167365975082503
I_input,0,8128,,2158,0,0.18717176415730005,0.004759908011001965,0.18712263392074335,0.18397449913986902,0.19041933445939824,0.0064448353195292185,0.17071195662533706,0.20310952884776845
S_noise,0,8128,S_00,2158,0,0.4528198855946259,0.00876404951750418,0.4528418150874587,0.4467879166628469,0.45878628040899516,0.011998363746148266,0.42481906828120314,0.4846383642654077
S_input,0,8128,S_00,2158,0,0.22644546215873018,0.004723559302188481,0.22648822624570475,0.22322304605204912,0.229727564136504,0.0065045180844548744,0.21153543086732357,0.24465176877140968
S_noise,0,8128,S_01,2158,0,0.31380502885637185,0.009475940719905955,0.31380411393841035,0.30709393644673233,0.32024738390270013,0.013153447455967804,0.2847844091671715,0.3519805601247275
S_input,0,8128,S_01,2158,0,0.15691149005737454,0.004954335549124998,0.15692536890300685,0.15349960437520177,0.16018849287859016,0.0066888885033883905,0.14174517206428988,0.17467030856122528
S_noise,0,8128,S_02,2158,0,0.23149961587193593,0.009169662957326737,0.23134235316387813,0.22538644866854515,0.23780541518837073,0.012418966519825575,0.19369852194636314,0.2624489635459034
S_input,0,8128,S_02,2158,0,0.11575680274996569,0.00476368324488513,0.11569534615957469,0.1125406546929819,0.11897761879496976,0.006436964101987866,0.09684606604242951,0.13266921340479348
S_noise,0,8128,S_03,2158,0,0.5557534029831849,0.009898647871719062,0.5559934377952256,0.5488968633357066,0.5624437090907257,0.013546845755019077,0.5236868071327957,0.5921514621116537
S_input,0,8128,S_03,2158,0,0.2779262107816841,0.005354619162377257,0.2779557911684908,0.2743827477472057,0.2815294068876268,0.007146659140421063,0.26009468387922263,0.29776865628561033
S_noise,0,8128,S_04,2158,0,0.4991588922342591,0.00896241908235948,0.49924960207393965,0.49292796450923426,0.5051608701644501,0.012232905655215842,0.4699301783036634,0.5314114765032473
S_input,0,8128,S_04,2158,0,0.24961940556915824,0.0048795997266663765,0.24971573811731884,0.24631742626886213,0.25291708147065733,0.0065996552017952015,0.2335283222399797,0.26894701154351647
E_noise,0,101,,2158,0,6.187195400921171e-16,6.898305807119978e-17,6.115981119072021e-16,5.69853350374672e-16,6.569066924256378e-16,8.705334205096577e-17,4.612627863965421e-16,9.22829228890115e-16
E_input,0,101,,2158,0,6.831052144195813e-07,4.44988796243338e-07,5.992569059790614e-07,3.9020542795473576e-07,8.684674896666022e-07,4.782620617118665e-07,1.2491608366350173e-08,5.9308189820287335e-06
I_noise,0,101,,2158,0,0.37462918735659334,0.008511030013087124,0.3747178844847796,0.36879557957331044,0.38048636542664105,0.01169078585333061,0.3462521400766386,0.4052409348791606
I_input,0,101,,2158,0,0.18729793409948745,0.004618248188515559,0.18737866009821091,0.18413483002102435,0.19042882232056446,0.006293992299540113,0.17124592975429773,0.20194154386867225
S_noise,0,101,S_00,2158,0,0.4530590832665326,0.008999762901535414,0.4530916702441117,0.44724781852109735,0.4591761848638015,0.011928366342704166,0.42239642598180493,0.4831615974717542
S_input,0,101,S_00,2158,0,0.2265441557978962,0.004853526971524992,0.22657170897491488,0.22323547820917447,0.22990017405997618,0.006664695850801705,0.21063062215438647,0.24462978227043064
S_noise,0,101,S_01,2158,0,0.313995763482278,0.009631866569466475,0.31384386555081756,0.3076638105534323,0.3204032856072637,0.01273947505383144,0.27549756522865865,0.34381879074686283
S_input,0,101,S_01,2158,0,0.157029998085585,0.005025511554297585,0.15693795822264234,0.15369676760377565,0.1605139996553676,0.006817232051591959,0.13549824749710268,0.17272076299955264
S_noise,0,101,S_02,2158,0,0.2317451334395172,0.009149390059285289,0.23162536275770462,0.2255596364743998,0.23811515691949278,0.012555520445092977,0.19203612733180223,0.2591344378112952
S_input,0,101,S_02,2158,0,0.11587862610120993,0.004693944561523674,0.11576145618375314,0.11266146336497118,0.11895313053705095,0.006291667172079768,0.09661027310716888,0.13056610422621773
S_noise,0,101,S_03,2158,0,0.5561530451942739,0.009924134703206218,0.5562349745580045,0.5493830454180746,0.5630596048537337,0.013676559435659152,0.5212621369525144,0.5917185571122506
S_input,0,101,S_03,2158,0,0.27817509081366437,0.00535676100647686,0.27823925749125844,0.27455560207011204,0.2817994380836149,0.007243836013502869,0.257801381830012,0.2972324620177628
S_noise,0,101,S_04,2158,0,0.4995055412732504,0.009041756641093976,0.4993772143479773,0.4933865804676368,0.5058403728774671,0.0124537924098303,0.4689415292790411,0.5299442241581663
S_input,0,101,S_04,2158,0,0.24978559991733665,0.0048772646388325494,0.24981343519404597,0.24639134976607058,0.25316048279267245,0.00676913302660187,0.2331002878671118,0.2659046417698435
E_noise,0,202,,2158,0,6.182218684112695e-16,6.859911559306985e-17,6.0918180270727985e-16,5.688073825045054e-16,6.58996856474585e-16,9.018947397007956e-17,4.611720196231616e-16,9.359276680999297e-16
E_input,0,202,,2158,0,6.835162114648897e-07,4.4560610364334723e-07,5.985010801478695e-07,3.9046926429016464e-07,8.697603261419987e-07,4.79291061851834e-07,1.2428228099333192e-08,6.006802379638151e-06
I_noise,0,202,,2158,0,0.37452154470884413,0.00864339003925693,0.3743351007651345,0.3687460974495143,0.3807057948015065,0.011959697351992205,0.34652439165746346,0.40393914806251635
I_input,0,202,,2158,0,0.18728686900591593,0.004665355321900504,0.18723948391747322,0.18413688508973935,0.19052452863125977,0.00638764354152041,0.17171510813940813,0.2038584046678885
S_noise,0,202,S_00,2158,0,0.4528298179621696,0.009279415400010335,0.4527814073583149,0.4464394760285466,0.4589527009619123,0.012513224933365708,0.41654725163361866,0.48579334395979823
S_input,0,202,S_00,2158,0,0.22650611791804381,0.004960885364154313,0.22639965090131633,0.22315696673906732,0.2297302303364973,0.00657326359742999,0.20773813080096032,0.24327001243879937
S_noise,0,202,S_01,2158,0,0.31375944372974013,0.009669702514407597,0.3133990947222135,0.3075665445358621,0.3204372989820503,0.012870754446188237,0.2782348550539887,0.3501927385761022
S_input,0,202,S_01,2158,0,0.15691327315204015,0.005035353475919981,0.156831411301687,0.15343959337370372,0.1604253387878859,0.006985745414182176,0.13961339390944102,0.17571094474710963
S_noise,0,202,S_02,2158,0,0.23147289811719293,0.009182971880622502,0.23138584631750153,0.22530432000202133,0.23778580046236303,0.012481480460341698,0.2011946711633312,0.26719931546833414
S_input,0,202,S_02,2158,0,0.11573871892999857,0.004795361720212877,0.11567161416140692,0.11253613684230625,0.11892667125024663,0.006390534407940379,0.09940929397967907,0.13286074470065332
S_noise,0,202,S_03,2158,0,0.5557829259915881,0.010214339473290385,0.5560364834366667,0.5486686001111403,0.5628674393711941,0.01419883926005383,0.5239206316720714,0.5881958931089457
S_input,0,202,S_03,2158,0,0.2779573724300392,0.005460650804862985,0.2779684591745032,0.2742243973725471,0.28171736190691443,0.007492964534367319,0.26000483932076585,0.29506037748608066
S_noise,0,202,S_04,2158,0,0.49919147791909113,0.009287517130574277,0.49916420454308563,0.4929784312151219,0.5055570671803201,0.012578635965198204,0.47090408733857614,0.5296331224701057
S_input,0,202,S_04,2158,0,0.24958348950480844,0.005100681776898103,0.24958989821940314,0.24607575788369196,0.25312979967136673,0.00705404178767477,0.23257354735879945,0.26639156767243094
E_noise,0,303,,2158,0,6.194579017761644e-16,6.942216403038896e-17,6.108001409275272e-16,5.704426943267686e-16,6.609428551862306e-16,9.050016085946195e-17,4.510720781465344e-16,9.149671039389114e-16
E_input,0,303,,2158,0,6.830142319179882e-07,4.4426993762201476e-07,5.969832951687485e-07,3.910792118252583e-07,8.652282028398083e-07,4.7414899101455e-07,1.2550213623496125e-08,5.848423584602346e-06
I_noise,0,303,,2158,0,0.37426792559669686,0.008881008765815919,0.37442437618708724,0.36834331708048784,0.38022789026456427,0.01188457318407643,0.3481394357243511,0.4019684023859139
I_input,0,303,,2158,0,0.18714680875620612,0.0047678660408712326,0.18723617594074576,0.18389145777921662,0.19046057917481574,0.00656912139559912,0.17261178783645642,0.20191675119008723
S_noise,0,303,S_00,2158,0,0.45300179533028706,0.009156968701626978,0.4529347979869428,0.44716277308612806,0.4591251558503603,0.011962382764232227,0.42263734107090245,0.4830099490540349
S_input,0,303,S_00,2158,0,0.22655418002300662,0.004839818210375691,0.2264878601602635,0.22328596362776698,0.22980070691464408,0.006514743286877095,0.21074768643657754,0.24227675608887864
S_noise,0,303,S_01,2158,0,0.3141087440894767,0.009653978501113086,0.3139231795695019,0.3075684369277554,0.3206798029994401,0.013111366071684727,0.2812257746531999,0.3449556879134451
S_input,0,303,S_01,2158,0,0.15711077621000544,0.005047444077669216,0.15707869980052422,0.15365837656362513,0.16058736326653386,0.006928986702908729,0.14141613713201553,0.17432628704159028
S_noise,0,303,S_02,2158,0,0.23154500790839266,0.009181497461318697,0.23123826678669038,0.2250512359192429,0.2376933949292692,0.0126421590100263,0.20428133855177516,0.2622347627449602
S_input,0,303,S_02,2158,0,0.11577779966062583,0.004801530053140108,0.11560940085745311,0.11235081222773462,0.11906079064917185,0.006709978421437238,0.1019825829643715,0.13117537496871687
S_noise,0,303,S_03,2158,0,0.5557537771606192,0.010334435377276635,0.5557546377670872,0.5487470744182998,0.5627674017960087,0.014020327377708863,0.5202230051646839,0.5886370056855699
S_input,0,303,S_03,2158,0,0.2778386328206723,0.0055598886924936,0.27774753940805563,0.2740069593805123,0.2816378752158565,0.007630915835344199,0.25989673466045426,0.29771560266158886
S_noise,0,303,S_04,2158,0,0.4991521916051948,0.009342232979558296,0.4992614927533161,0.4928467899997768,0.5055555674400355,0.012708777440258667,0.4680605944650282,0.5294076308691695
S_input,0,303,S_04,2158,0,0.24955056661119868,0.005092375415037584,0.2496142428262023,0.24620690483443036,0.2530195327740675,0.006812627939637161,0.23335517836393044,0.268035499004684
E_noise,0,404,,2158,0,6.190717353857653e-16,6.872567631625119e-17,6.102713816576672e-16,5.703311679086769e-16,6.571097688213309e-16,8.677860091265395e-17,4.627893466790326e-16,8.94204828755989e-16
E_input,0,404,,2158,0,6.834590198335905e-07,4.455749916750611e-07,5.984690543683774e-07,3.903998218120962e-07,8.730728248516238e-07,4.826730030395276e-07,1.2477425443876735e-08,5.821456547313184e-06
I_noise,0,404,,2158,0,0.3745193366437458,0.008809278817419412,0.3744255051272128,0.3686810810983582,0.3804050538221151,0.011723972723756915,0.3372542414396308,0.40417248432754826
I_input,0,404,,2158,0,0.18726489794214768,0.004733798161102286,0.1872391657551687,0.1841342569774539,0.1903440463470667,0.006209789369612806,0.16866200300312878,0.2055733947326056
S_noise,0,404,S_00,2158,0,0.45295162271100586,0.009228621833036499,0.4529692093062464,0.4465856986893421,0.4591242477507663,0.012538549061424209,0.42195533727331247,0.48337463997279373
S_input,0,404,S_00,2158,0,0.22650200357625663,0.004934226489954888,0.22644751064500285,0.22319167831370293,0.22974221640460826,0.0065505380909053335,0.2100958333840711,0.24328601929235472
S_noise,0,404,S_01,2158,0,0.3143120290064729,0.009764995656877825,0.31432623908821494,0.30787281802349353,0.3209378511593929,0.013065033135899351,0.2838514301667691,0.3465480616815555
S_input,0,404,S_01,2158,0,0.15722617319261184,0.0051149731824137,0.15717874219941647,0.15391247046258716,0.16056600473212562,0.006653534269538464,0.14128559645025082,0.17563627907890686
S_noise,0,404,S_02,2158,0,0.23205252937525048,0.009300436591359016,0.2320419570982198,0.22574879070562692,0.2382831774507107,0.012534386745083781,0.19931316804487223,0.26672646093917685
S_input,0,404,S_02,2158,0,0.11601677916856692,0.004816425031513328,0.11604452954315551,0.11277075791983343,0.11917075417600002,0.006399996256166593,0.10029963851399988,0.13265855423990502
S_noise,0,404,S_03,2158,0,0.5560248531740684,0.010327111713271057,0.5559832272163903,0.5490672359655087,0.5631904451324153,0.01412320916690668,0.5231341968996266,0.58908743204286
S_input,0,404,S_03,2158,0,0.2780739612311664,0.005613211082684579,0.2781477394110391,0.2742495178026571,0.2818024991410576,0.0075529813384004885,0.2618719130882279,0.29671226131390344
S_noise,0,404,S_04,2158,0,0.4993342799948561,0.00937348678817964,0.49932415302786737,0.49285410747332026,0.5056536748192249,0.012799567345904594,0.46874775805942215,0.5304539756872768
S_input,0,404,S_04,2158,0,0.24962123895021213,0.00514659990768844,0.24952814335973833,0.246026088817558,0.2529665005516981,0.006940411734140117,0.23106856579044974,0.26957774081875885
E_noise,0,505,,2158,0,6.189962406363235e-16,6.943904380661122e-17,6.110804474344107e-16,5.700838208882596e-16,6.581973853628882e-16,8.811356447462861e-17,4.6585870718519675e-16,9.672573704302628e-16
E_input,0,505,,2158,0,6.83331652032716e-07,4.439277445814043e-07,5.983576701146364e-07,3.9186337158197e-07,8.695031443498022e-07,4.776397727678322e-07,1.250590189504383e-08,5.834806279992289e-06
I_noise,0,505,,2158,0,0.3742109205639801,0.008893981328546957,0.3741778905061073,0.36796327375914617,0.3803996117616344,0.012436338002488223,0.3487043823142079,0.40288335630186456
I_input,0,505,,2158,0,0.1871851763655763,0.004773784046534028,0.18710948597681687,0.18393312815318857,0.19037130615625653,0.006438178003067951,0.17049284790239846,0.20230765981303409
S_noise,0,505,S_00,2158,0,0.4528030527695744,0.009124064543660347,0.45300731282257745,0.44653345718384385,0.45896293046180225,0.012429473277958403,0.42143480106446074,0.4864550079828823
S_input,0,505,S_00,2158,0,0.22644550759638665,0.00492731416799173,0.22645755244758772,0.22304243113056332,0.22976198304078796,0.006719551910224636,0.20979205066792486,0.2439850859502476
S_noise,0,505,S_01,2158,0,0.31368718102077775,0.009760633567275924,0.3134343503694884,0.30713853195863494,0.3201727055114129,0.013034173552777972,0.2823121024288963,0.3480893324389617
S_input,0,505,S_01,2158,0,0.15687584540063917,0.005123962016621588,0.15677919144270924,0.15352614598957892,0.16021774772174902,0.006691601732170094,0.14038763839961857,0.1753055067350582
S_noise,0,505,S_02,2158,0,0.23146591652040976,0.009397346512184613,0.23126222324696877,0.22523422649170077,0.2375435181711667,0.012309291679465928,0.19744665171309755,0.26382047248396573
S_input,0,505,S_02,2158,0,0.11569130143239509,0.004882139942212933,0.11557192484467205,0.1124773435139583,0.11878414237212312,0.006306798858164819,0.0992922579961088,0.13319310430780076
S_noise,0,505,S_03,2158,0,0.5558093328152189,0.010320459914120518,0.5558212491452622,0.5488554652890433,0.5627876036807398,0.013932138391696491,0.523306921072865,0.5858260404814638
S_input,0,505,S_03,2158,0,0.277873222507594,0.005593121691260583,0.2779589689553065,0.27413868458683677,0.28163408833089637,0.007495403744059603,0.26030940122798774,0.2951768643640193
S_noise,0,505,S_04,2158,0,0.49921799274516,0.009312105127921471,0.499109039808649,0.4929098798057333,0.5057709628837889,0.012861083078055557,0.4688926213198465,0.5284845306333094
S_input,0,505,S_04,2158,0,0.24959591994244143,0.005148611284946588,0.2495773400124462,0.24615616806493978,0.2531057058743997,0.006949537809459894,0.23334470332575225,0.2671687336785132
E_noise,5,8128,,2158,0,1.112140024400387e-15,1.924412764551278e-16,1.0845924071355491e-15,9.725778273938999e-16,1.2242041923981084e-15,2.5162636500420855e-16,6.750835955539508e-16,1.994594718199696e-15
E_input,5,8128,,2158,0,1.038034999030906e-06,6.756517032825598e-07,9.097813055566271e-07,5.927534598105114e-07,1.3208166714443098e-06,7.280632116337984e-07,1.893195881260877e-08,8.96904821219036e-06
I_noise,5,8128,,2158,0,0.37430077341386364,0.008719867332945214,0.3741762655540209,0.3684311490464359,0.3801765407826467,0.011745391736210753,0.34622078735964845,0.40167365990441345
I_input,5,8128,,2158,0,0.0899354529898527,0.002241544330516619,0.08990220528424661,0.08845128608717466,0.09146081095167967,0.0030095248645050088,0.08220831380388147,0.09743224255966541
S_noise,5,8128,S_00,2158,0,0.4528198855575955,0.008764049481836218,0.4528418150658145,0.44678791825175934,0.45878627939200467,0.011998361140245328,0.42481906774747713,0.48463836461170373
S_input,5,8128,S_00,2158,0,0.10880574629276828,0.002226495495054791,0.10884202702863166,0.10727348874211545,0.11034108994648821,0.003067601204372758,0.10186377475320892,0.11738753173296265
S_noise,5,8128,S_01,2158,0,0.31380502884405703,0.009475940710146073,0.3138041143628262,0.30709393709382804,0.32024738456252627,0.013153447468698232,0.28478440806400496,0.35198055970301567
S_input,5,8128,S_01,2158,0,0.07539639390064366,0.002353214058153195,0.07540509633600506,0.07377174509585281,0.07694432995740558,0.0031725848615527658,0.06815179499307869,0.08378760450342597
S_noise,5,8128,S_02,2158,0,0.23149961587354137,0.009169662967885293,0.23134235299512484,0.2253864488575494,0.23780541556429768,0.012418966706748275,0.19369852165012097,0.2624489641933954
S_input,5,8128,S_02,2158,0,0.055621202782667224,0.0022674594754355302,0.055588337940491894,0.05408350645531719,0.05717073263657662,0.0030872261812594295,0.046539343549964016,0.0636443248835443
S_noise,5,8128,S_03,2158,0,0.5557534029760772,0.009898647867275848,0.5559934375156597,0.5488968632655788,0.5624437087083344,0.013546845442755528,0.5236868080478064,0.5921514622742534
S_input,5,8128,S_03,2158,0,0.13354149934666892,0.002521875801028239,0.13355616671087725,0.13185793324263267,0.1352061140766001,0.003348180833967429,0.1250993903198461,0.14277216745642138
S_noise,5,8128,S_04,2158,0,0.49915889226751803,0.008962419058633037,0.4992496008329421,0.49292796468522226,0.5051608703510735,0.012232905665851224,0.46993017773837203,0.5314114764003842
S_input,5,8128,S_04,2158,0,0.11994053960726525,0.0022923040178261436,0.11998604063220861,0.11838282166436595,0.1215043743618954,0.0031215526975294505,0.1124012886564729,0.12899445511913082
E_noise,5,101,,2158,0,1.1116434419117157e-15,1.9508499780460636e-16,1.081782162611083e-15,9.667969120955402e-16,1.21921089729336e-15,2.5241398519781985e-16,7.0308350170569195e-16,1.9608586040068627e-15
E_input,5,101,,2158,0,1.0379533427675173e-06,6.760779963892303e-07,9.107003540415606e-07,5.935526089670537e-07,1.319703676369242e-06,7.261510674021884e-07,1.897775687698906e-08,9.016728300041897e-06
I_noise,5,101,,2158,0,0.374629187363261,0.008511029997068837,0.37471788487437335,0.36879558060336326,0.3804863659901663,0.011690785386803015,0.34625214046633934,0.40524093490322993
I_input,5,101,,2158,0,0.08999888479289159,0.002176034491403434,0.09002615984396536,0.0885165573948182,0.0914472017060631,0.002930644311244901,0.0824078821242702,0.0968065575454604
S_noise,5,101,S_00,2158,0,0.453059083255639,0.0089997629152477,0.45309166929761857,0.4472478190077487,0.45917618532548204,0.011928366317733363,0.42239642570868946,0.48316159683490906
S_input,5,101,S_00,2158,0,0.10885470790697162,0.002287457115388571,0.10886367586892143,0.10729349585695139,0.1104364597472139,0.003142963890262515,0.10127098189823401,0.11718817823761624
S_noise,5,101,S_01,2158,0,0.31399576348840075,0.009631866578590685,0.313843865439698,0.30766381013372995,0.3204032860024333,0.012739475868703332,0.27549756474021964,0.34381879114476926
S_input,5,101,S_01,2158,0,0.07545144411889491,0.0023879974124973013,0.07541279536260637,0.07387593556635519,0.07707423029480845,0.0031982947284532603,0.0652715665729391,0.08281617144483805
S_noise,5,101,S_02,2158,0,0.23174513344458927,0.00914939005521088,0.23162536299621683,0.2255596366954138,0.23811515594549565,0.012555519250081859,0.1920361267356217,0.2591344390125544
S_input,5,101,S_02,2158,0,0.05568001732900953,0.0022385345588585145,0.05560377931169708,0.0541512999366415,0.05716047687171353,0.003009176935072029,0.046377690322084324,0.0626014137392737
S_noise,5,101,S_03,2158,0,0.5561530452178601,0.009924134696422855,0.5562349745936305,0.5493830450781827,0.5630596056753321,0.01367656059714939,0.5212621350799476,0.5917185582616078
S_input,5,101,S_03,2158,0,0.13365782895062817,0.0025237224304640736,0.13367668792250142,0.13196576547475555,0.13536289047773087,0.0033971250029753153,0.12407414217177543,0.14272579539898805
S_noise,5,101,S_04,2158,0,0.4995055413042451,0.009041756620190394,0.49937721360591536,0.4933865807506613,0.5058403733812943,0.01245379263063301,0.46894152763277797,0.5299442250480108
S_input,5,101,S_04,2158,0,0.12002084673668803,0.002294648923252923,0.12003546090498865,0.11841493756587995,0.121585435916778,0.0031704983508980544,0.11210083272034681,0.12755995906951
E_noise,5,202,,2158,0,1.1113510989197855e-15,1.9176518155127893e-16,1.0846346487145663e-15,9.760103892934293e-16,1.2196285985915781e-15,2.436182092981488e-16,7.221115599086647e-16,1.978496884136974e-15
E_input,5,202,,2158,0,1.0384854640768018e-06,6.768781163828575e-07,9.09516210700702e-07,5.934499531483968e-07,1.3196368692827814e-06,7.261869161343845e-07,1.889537946437054e-08,9.115303246052292e-06
I_noise,5,202,,2158,0,0.37452154471388205,0.008643390036457308,0.3743351007614012,0.3687460975999146,0.3807057950849616,0.011959697485046994,0.34652439211558894,0.4039391484156141
I_input,5,202,,2158,0,0.08999053669950165,0.002199034518866631,0.08998266959097154,0.08851940127367267,0.09150465690245975,0.002985255628787084,0.08266898979224498,0.09776255887354295
S_noise,5,202,S_00,2158,0,0.45282981795155913,0.009279415363629893,0.4527814071873097,0.44643947696019454,0.4589527012217266,0.012513224261532063,0.41654725122572195,0.4857933431708976
S_input,5,202,S_00,2158,0,0.10883117947777002,0.00234177411598962,0.1088013650379269,0.10723694257337654,0.11034968676750312,0.0031127441941265765,0.09985344440043624,0.11670872706162336
S_noise,5,202,S_01,2158,0,0.31375944374712456,0.009669702531863092,0.3133990950650912,0.3075665447054654,0.32043729847059993,0.012870753765134524,0.2782348543016949,0.3501927393280103
S_input,5,202,S_01,2158,0,0.07539546062564483,0.002392847413614469,0.075345681703371,0.0737659242503433,0.07706462633766013,0.003298702087316835,0.0671148781495328,0.08438960708119676
S_noise,5,202,S_02,2158,0,0.23147289813030444,0.00918297187364433,0.23138584594614453,0.22530431905080936,0.23778580015000556,0.012481481099196196,0.20119467011174916,0.2671993153236891
S_input,5,202,S_02,2158,0,0.05561292884782036,0.002280537145052417,0.05558377603182843,0.054096500050823726,0.05713476393254956,0.0030382638817258306,0.04784802071616331,0.06372384095114679
S_noise,5,202,S_03,2158,0,0.5557829259934334,0.010214339441684525,0.5560364828760986,0.5486686011841979,0.5628674382139809,0.014198837029782974,0.52392063112702,0.5881958927764062
S_input,5,202,S_03,2158,0,0.13355546307196717,0.0025756549006762087,0.13357179482172854,0.1317934754958541,0.1353155610668619,0.0035220855710078047,0.12522083745781715,0.14158357899417376
S_noise,5,202,S_04,2158,0,0.4991914779228859,0.009287517091881378,0.4991642047097996,0.49297843150278253,0.5055570670549336,0.012578635552151107,0.47090408663423733,0.5296331220334757
S_input,5,202,S_04,2158,0,0.1199269090046858,0.002394553315238685,0.11996822039206323,0.11829938895187228,0.12159932172135576,0.0032999327694834824,0.11203133147468695,0.12783806923707566
E_noise,5,303,,2158,0,1.1113537756442975e-15,1.9035377132189354e-16,1.0786277267229471e-15,9.771398374566016e-16,1.2133454252140745e-15,2.362055877574729e-16,7.087521760605618e-16,1.911629486429608e-15
E_input,5,303,,2158,0,1.03783441835072e-06,6.751456644690634e-07,9.073723085495532e-07,5.943364207087165e-07,1.3152231740490209e-06,7.208867533403043e-07,1.90536817449683e-08,8.909414569187468e-06
I_noise,5,303,,2158,0,0.3742679255853505,0.008881008774757736,0.37442437595465095,0.3683433167674861,0.38022789014428304,0.011884573376796936,0.3481394359495109,0.401968403665799
I_input,5,303,,2158,0,0.08992410069625283,0.0022494534445062853,0.0899521166633592,0.08839696985401874,0.09149031919935148,0.0030933493453327437,0.08317258094503954,0.09680081998065794
S_noise,5,303,S_00,2158,0,0.45300179532421,0.00915696870653,0.4529347981326827,0.4471627735221958,0.45912515545379323,0.011962381931597432,0.4226373401218886,0.4830099476975285
S_input,5,303,S_00,2158,0,0.10885671475966385,0.0022870145996496637,0.10883409105149683,0.10732190745487416,0.11043129883497094,0.0031093913800967765,0.10130234954092049,0.11613650721191203
S_noise,5,303,S_01,2158,0,0.3141087440814964,0.009653978491250699,0.31392317933471375,0.30756843651470067,0.32067980218188064,0.013111365667179964,0.28122577376246166,0.34495568729293113
S_input,5,303,S_01,2158,0,0.07548866646241832,0.0023980994192382083,0.07547254028394786,0.07383790122857925,0.07713649892705812,0.0032985976984788723,0.0680673909133921,0.08363664711432708
S_noise,5,303,S_02,2158,0,0.23154500790451973,0.009181497475215215,0.23123826712569562,0.2250512360431966,0.23769339529363245,0.012642159250435853,0.20428133762156472,0.262234762883398
S_input,5,303,S_02,2158,0,0.05563164348763763,0.002284013688899266,0.055540030650235064,0.05399364328156274,0.057188483059002176,0.003194839777439437,0.049016012401360845,0.06298588764201758
S_noise,5,303,S_03,2158,0,0.5557537771598314,0.010334435377148758,0.5557546373673112,0.5487470746251207,0.5627674025274492,0.014020327902328433,0.5202230042480259,0.5886370053778553
S_input,5,303,S_03,2158,0,0.13350566205747144,0.002622897527436198,0.1334594303148175,0.13171917419588505,0.13529918330062873,0.003580009104743681,0.12511518222856788,0.14279377125792045
S_noise,5,303,S_04,2158,0,0.4991521915858325,0.009342232986011332,0.4992614923590335,0.4928467895995965,0.5055555669649671,0.012708777365370572,0.4680605941841402,0.5294076289708902
S_input,5,303,S_04,2158,0,0.11991226204989737,0.0023944703930802577,0.1199498065989871,0.11834808372190979,0.12155969463221342,0.0032116109103036278,0.11230015601632912,0.12826125383449344
E_noise,5,404,,2158,0,1.1134442798113826e-15,1.9470531593429066e-16,1.088073850241405e-15,9.742242560481726e-16,1.2201389247061848e-15,2.4591466865801215e-16,7.156619248491984e-16,2.005464358358936e-15
E_input,5,404,,2158,0,1.0384121907262175e-06,6.76836940038922e-07,9.097478693405871e-07,5.935281775713484e-07,1.3263675217983969e-06,7.328393442270484e-07,1.895921633238292e-08,8.874201789961575e-06
I_noise,5,404,,2158,0,0.37451933661931924,0.008809278805956092,0.37442550545086195,0.36868108112561426,0.3804050533676051,0.011723972241990843,0.3372542413585363,0.40417248528892424
I_input,5,404,,2158,0,0.08998156958561024,0.0022336916969848833,0.08996073630381941,0.08852589649641701,0.09144577220850106,0.002919875712084047,0.08104531928351938,0.09853416162620376
S_noise,5,404,S_00,2158,0,0.4529516227232325,0.009228621821358175,0.4529692099169199,0.44658569895085287,0.4591242477183718,0.01253854876751892,0.4219553379548042,0.48337463952783516
S_input,5,404,S_00,2158,0,0.10883339052172958,0.002328151955955612,0.10879474726061744,0.10728743708871996,0.11037214205724138,0.0030847049685214234,0.10118235718334928,0.11679050770079914
S_noise,5,404,S_01,2158,0,0.31431202901878147,0.00976499566213327,0.3143262383935108,0.3078728181809194,0.32093785080993653,0.013065032629017148,0.2838514298040282,0.34654806123837034
S_input,5,404,S_01,2158,0,0.07554314304881643,0.002429026662233748,0.07552794397543937,0.07395881594740522,0.07715020190838186,0.0031913859609766365,0.06804278821254882,0.08422296271696464
S_noise,5,404,S_02,2158,0,0.23205252936253276,0.00930043657422098,0.23204195649576803,0.2257487905596774,0.23828317780257607,0.012534387242898681,0.19931316774028487,0.26672646121747284
S_input,5,404,S_02,2158,0,0.05574741280051323,0.002293764368974603,0.05576190079019064,0.05420769524525637,0.05724532386007182,0.003037628614815449,0.04814806417604112,0.06378922231407394
S_noise,5,404,S_03,2158,0,0.5560248531903438,0.010327111700508642,0.5559832278398893,0.5490672366125099,0.5631904453688689,0.014123208756358974,0.5231341971187319,0.5890874335631927
S_input,5,404,S_03,2158,0,0.13361150276546954,0.00264236472955867,0.13365881528265505,0.13180163306018905,0.13536339865184321,0.0035617655916541646,0.1259744188888206,0.14241456134485123
S_noise,5,404,S_04,2158,0,0.4993342799686898,0.009373486777776477,0.49932415276424297,0.4928541066408965,0.5056536757982073,0.012799569157310786,0.4687477587962366,0.5304539761459315
S_input,5,404,S_04,2158,0,0.11994761799648168,0.002416790306213631,0.11991824696913082,0.11826901695861786,0.12151434815225351,0.0032453311936356533,0.1112682378917817,0.12909870812605934
E_noise,5,505,,2158,0,1.1121617008733826e-15,1.940992419661716e-16,1.081634473481312e-15,9.757981027541851e-16,1.214649242593477e-15,2.388511398392918e-16,7.095739718770753e-16,2.0352312620960148e-15
E_input,5,505,,2158,0,1.0382454542365134e-06,6.746964430983824e-07,9.098724819909134e-07,5.958809899966676e-07,1.3210806902110209e-06,7.251997002143533e-07,1.8996185466503104e-08,8.891641848903848e-06
I_noise,5,505,,2158,0,0.374210920573277,0.008893981355716566,0.374177890570264,0.3679632740587386,0.38039961135154327,0.012436337292804689,0.34870438138781307,0.4028833556439622
I_input,5,505,,2158,0,0.08993785374560367,0.0022539057990111546,0.08993158012030177,0.08841190139019528,0.0914508182253564,0.0030389168351611234,0.0822079174174193,0.09693682801961306
S_noise,5,505,S_00,2158,0,0.4528030527738501,0.009124064525594923,0.453007313371213,0.44653345767644015,0.45896293105531955,0.012429473378879397,0.4214348022224715,0.4864550083654724
S_input,5,505,S_00,2158,0,0.10880527137690828,0.0023221121793449424,0.10882092748188468,0.10720543981657452,0.11035963517005104,0.0031541953534765244,0.10087132969158893,0.11718418401078823
S_noise,5,505,S_01,2158,0,0.31368718102619153,0.009760633560262987,0.31343435059496916,0.30713853184665885,0.3201727050194745,0.013034173172815633,0.28231210307424764,0.34808933295560773
S_input,5,505,S_01,2158,0,0.0753776903484188,0.002433238284417804,0.07534734955120803,0.07376377347121023,0.07695550801941428,0.0031917345482040532,0.06771720755854445,0.08416019232961722
S_noise,5,505,S_02,2158,0,0.23146591652760987,0.009397346490254534,0.23126222342930985,0.2252342272382211,0.23754351804331292,0.012309290805091827,0.19744665208884132,0.2638204725568361
S_input,5,505,S_02,2158,0,0.05559312975837225,0.002324578746635159,0.05552833923423828,0.054069160038536554,0.057081884881220894,0.0030127248426843403,0.04778905948687842,0.06387791318081315
S_noise,5,505,S_03,2158,0,0.5558093328376216,0.01032045990312767,0.5558212489858478,0.5488554647382065,0.5627876037607591,0.013932139022552636,0.5233069220749413,0.5858260417408797
S_input,5,505,S_03,2158,0,0.13352176207327626,0.00263312512794801,0.133539152570359,0.13177347482917054,0.1352839052566428,0.003510430427472261,0.12536722464902983,0.14152988800157562
S_noise,5,505,S_04,2158,0,0.49921799275455486,0.009312105132884583,0.4991090403710141,0.49290988120638163,0.5057709620401515,0.012861080833769856,0.4688926214410673,0.5284845305526206
S_input,5,505,S_04,2158,0,0.11993280734002255,0.002416382668147562,0.11991807148040604,0.11832195845687983,0.12157373438995131,0.0032517759330714796,0.1124685317879206,0.12790951745281323
E_noise,10,8128,,2158,0,1.8589475187770735e-15,5.687518428651271e-16,1.7756146133894867e-15,1.4428505778539168e-15,2.1634998473534286e-15,7.206492694995119e-16,7.807578057038725e-16,5.052729370014466e-15
E_input,10,8128,,2158,0,1.24202614277185e-06,8.084986106391809e-07,1.0882712575223555e-06,7.08602061135436e-07,1.5830916729651214e-06,8.744896118296855e-07,2.2663799128556688e-08,1.0761862957602044e-05
I_noise,10,8128,,2158,0,0.374300773426469,0.008719867343762249,0.3741762650789505,0.36843114865796833,0.38017654079121666,0.011745392133248322,0.3462207872269474,0.40167365943372785
I_input,10,8128,,2158,0,0.03402999198131434,0.000821073696530823,0.03401860719727615,0.03348473119062015,0.03458860237097433,0.0011038711803541823,0.031239062596312202,0.03674976601725294
S_noise,10,8128,S_00,2158,0,0.4528198855848342,0.00876404950924444,0.45284181493573034,0.44678791695226827,0.45878628094492635,0.011998363992658079,0.4248190692428595,0.48463836385713177
S_input,10,8128,S_00,2158,0,0.04116956470486181,0.0008177216757079041,0.041175523293287566,0.040608242425472486,0.04173619767386143,0.0011279552483889413,0.03859841458238504,0.04429611917828382
S_noise,10,8128,S_01,2158,0,0.313805028855896,0.009475940714370258,0.31380411378433887,0.3070939368507685,0.3202473835399977,0.013153446689229187,0.28478440749342887,0.3519805595889687
S_input,10,8128,S_01,2158,0,0.028529373117661738,0.0008748451710097623,0.02853549111408695,0.02792978184147078,0.029102835120048732,0.0011730532785779527,0.025820439289878743,0.031797261375671154
S_noise,10,8128,S_02,2158,0,0.2314996158647205,0.009169662946905199,0.23134235312662008,0.22538644914316922,0.23780541578480838,0.012418966641639162,0.1936985222844436,0.2624489645449144
S_input,10,8128,S_02,2158,0,0.021046580548702957,0.0008455351495942777,0.021029684762394613,0.020481669207518618,0.021624179898845353,0.0011425106913267348,0.01761443969958453,0.024007483362501178
S_noise,10,8128,S_03,2158,0,0.5557534029888528,0.009898647878926666,0.5559934370248032,0.5488968630467802,0.5624437089808835,0.013546845934103269,0.523686806444641,0.5921514616466871
S_input,10,8128,S_03,2158,0,0.05052855130112816,0.0009249253440365167,0.050542798425772875,0.04989411433568241,0.05114894376434067,0.0012548294286582606,0.04742573795010363,0.05380131594368215
S_noise,10,8128,S_04,2158,0,0.4991588922266894,0.008962419047421344,0.49924960115152506,0.4929279650231267,0.5051608709740931,0.012232905950966433,0.4699301773592119,0.5314114757051378
S_input,10,8128,S_04,2158,0,0.04538259100073892,0.000837720301393631,0.04539247318815783,0.0448074516653087,0.04593703236380412,0.0011295806984954193,0.04259287950221234,0.048639842946105294
E_noise,10,101,,2158,0,1.8606781427678585e-15,5.717577217672456e-16,1.769582464678466e-15,1.4531357828127579e-15,2.1829722215097075e-15,7.298364386969496e-16,7.880766881569696e-16,4.437124563684778e-15
E_input,10,101,,2158,0,1.2419607099964517e-06,8.08839178581635e-07,1.0895975072665643e-06,7.108100680214046e-07,1.5801599012539556e-06,8.69349833232551e-07,2.2700608104316214e-08,1.0800400015129171e-05
I_noise,10,101,,2158,0,0.37462918739650647,0.008511030041195309,0.3747178842493313,0.3687955797784005,0.38048636621863674,0.011690786440236245,0.34625214012066224,0.40524093425304736
I_input,10,101,,2158,0,0.034056012696783225,0.0007981602469280497,0.03406858555245609,0.03351762247275678,0.034593827047118,0.0010762045743612156,0.031272688088665186,0.036556261791222844
S_noise,10,101,S_00,2158,0,0.45305908328631583,0.00899976285906966,0.4530916688038009,0.44724781945718867,0.45917618380571923,0.011928364348530562,0.4223964257957586,0.48316159670792974
S_input,10,101,S_00,2158,0,0.041189219123749156,0.0008398743638202128,0.04120043626490866,0.040621856845707904,0.04176331423635865,0.0011414573906507464,0.03836482590459055,0.04408553124280644
S_noise,10,101,S_01,2158,0,0.31399576347143215,0.009631866562443164,0.3138438664860431,0.3076638104687502,0.3204032870879206,0.012739476619170409,0.27549756500774614,0.3438187912216444
S_input,10,101,S_01,2158,0,0.028548837188162264,0.0008883639305876111,0.028530522963212207,0.027954502835421165,0.029151165176311646,0.0011966623408904802,0.02481784082149059,0.03124217026816338
S_noise,10,101,S_02,2158,0,0.23174513341594272,0.009149390013314558,0.23162536152813762,0.22555963617329744,0.23811515591855636,0.012555519745258925,0.1920361273910162,0.25913443599258984
S_input,10,101,S_02,2158,0,0.021069010570205954,0.0008377798949000827,0.021047050711072973,0.020498240509146417,0.02162886079527316,0.0011306202861267427,0.017517222304413507,0.023589593495647414
S_noise,10,101,S_03,2158,0,0.556153045212817,0.009924134642768886,0.5562349746488108,0.5493830447714957,0.5630596042424573,0.01367655947096158,0.5212621354480582,0.5917185568239203
S_input,10,101,S_03,2158,0,0.050570191412574926,0.0009261920332320455,0.05058093928373444,0.049947905765190564,0.05119873386403413,0.0012508280988435677,0.04709372157599943,0.05393638939568721
S_noise,10,101,S_04,2158,0,0.4995055412766994,0.009041756595459643,0.49937721326811524,0.4933865805441562,0.5058403710333,0.012453790489143857,0.46894152779133125,0.5299442231041266
S_input,10,101,S_04,2158,0,0.045413296310397394,0.0008409427001960794,0.045418137509047926,0.04482091231372997,0.04598759885514056,0.00116668654141059,0.04248702893935066,0.04811636874592216
E_noise,10,202,,2158,0,1.8601941111736578e-15,5.735114851728679e-16,1.777554302779437e-15,1.4419650130158304e-15,2.1695088202231335e-15,7.275438072073031e-16,7.898890215638966e-16,4.574487933548124e-15
E_input,10,202,,2158,0,1.242386888242024e-06,8.094813914134603e-07,1.0889422151950511e-06,7.095813232929393e-07,1.5796408291506798e-06,8.700595058577405e-07,2.2634242025646312e-08,1.087965157649713e-05
I_noise,10,202,,2158,0,0.3745215447171182,0.008643390008892348,0.3743351013695655,0.3687460982910263,0.38070579458802134,0.01195969629699506,0.3465243921196037,0.4039391474990186
I_input,10,202,,2158,0,0.034050666770721376,0.0008074267693180001,0.034048453971131945,0.033503709123481336,0.03461660557060854,0.0011128964471272054,0.03139753453537763,0.03685306600802574
S_noise,10,202,S_00,2158,0,0.4528298179632995,0.009279415419891017,0.45278140770818837,0.44643947569515385,0.4589527012244469,0.01251322552929307,0.4165472538768083,0.48579334229272825
S_input,10,202,S_00,2158,0,0.041176494908595325,0.0008623410761363052,0.04117113956894561,0.04057896369812012,0.04173624703752258,0.0011572833394024595,0.0378087308118441,0.04416900713432402
S_noise,10,202,S_01,2158,0,0.3137594437503713,0.009669702527000003,0.3133990955403094,0.3075665453337314,0.3204372993514844,0.012870754017753006,0.2782348550900002,0.3501927376182993
S_input,10,202,S_01,2158,0,0.028527736567808264,0.0008905389287851905,0.028497004747235245,0.02793890522463058,0.02913582912688925,0.0011969239022586696,0.02541748194141302,0.03190257592471628
S_noise,10,202,S_02,2158,0,0.23147289813857858,0.00918297186207241,0.23138584702299198,0.22530431976253174,0.23778579998397972,0.012481480221447988,0.20119467121222445,0.2671993152404505
S_input,10,202,S_02,2158,0,0.021043762853591722,0.0008490394860200846,0.021026700819691276,0.02047112828496806,0.021609890380737837,0.0011387620957697756,0.01816478146073925,0.024145648055522717
S_noise,10,202,S_03,2158,0,0.5557829259847317,0.01021433946866277,0.5560364823288366,0.5486686005732047,0.5628674397642291,0.014198839191024493,0.5239206320127213,0.5881958911239723
S_input,10,202,S_03,2158,0,0.05053310656610879,0.00094763905253856,0.050558035294828996,0.0498784702481721,0.0511779206486828,0.0012994504005106947,0.047488104578160675,0.053503908912226956
S_noise,10,202,S_04,2158,0,0.4991914779221728,0.009287517121820991,0.49916420458876565,0.49297842877409215,0.5055570684546806,0.012578639680588477,0.47090408824298063,0.5296331216802
S_input,10,202,S_04,2158,0,0.045380083424076366,0.0008733528822748909,0.0453944973956677,0.0447922731016273,0.045967578589032825,0.0011753054874055271,0.042595511683519736,0.0482534309494488
E_noise,10,303,,2158,0,1.8592131660006633e-15,5.676121904549224e-16,1.774858376963049e-15,1.4530985082495024e-15,2.1598397192714527e-15,7.067412110219503e-16,7.799057626525441e-16,4.316964001297717e-15
E_input,10,303,,2158,0,1.2418636869106586e-06,8.080899355022337e-07,1.0874305145680193e-06,7.111757186134733e-07,1.5765305744049735e-06,8.653548557915001e-07,2.2761742987415204e-08,1.0713479434922078e-05
I_noise,10,303,,2158,0,0.37426792562069067,0.00888100874651155,0.37442437599044875,0.36834331836863543,0.38022789059651374,0.01188457222787831,0.34813943674704506,0.4019684027142304
I_input,10,303,,2158,0,0.0340261670646318,0.0008273970858341742,0.03403960910392674,0.03345896430644481,0.034594812306341254,0.0011358479998964457,0.03153904605157498,0.03655463803831821
S_noise,10,303,S_00,2158,0,0.453001795291171,0.009156968737546066,0.452934797928822,0.44716277203372556,0.45912515395667075,0.011962381922945187,0.42263734012168924,0.48300994785014284
S_input,10,303,S_00,2158,0,0.04118794444866382,0.0008444513097104071,0.04117454247120399,0.040621850554093744,0.04176604054097341,0.0011441899868796651,0.03835894354653609,0.04382573389618966
S_noise,10,303,S_01,2158,0,0.31410874407443234,0.009653978533758368,0.3139231800166049,0.30756843683492846,0.3206798027711554,0.013111365936226915,0.28122577351271244,0.3449556867273623
S_input,10,303,S_01,2158,0,0.0285617589733173,0.00089177059554668,0.028547209657248912,0.02794911205384893,0.02916879761572162,0.0012196855618726889,0.025701433985763515,0.03155466552430606
S_noise,10,303,S_02,2158,0,0.23154500789076524,0.00918149748482841,0.2312382668178814,0.22505123564052507,0.23769339668125505,0.012642161040729988,0.20428133799948867,0.26223476406283674
S_input,10,303,S_02,2158,0,0.02105076675767535,0.0008503851275049391,0.021022571040512535,0.020453006048780063,0.021621477038911086,0.0011684709901310236,0.018556451190137126,0.023833665769707867
S_noise,10,303,S_03,2158,0,0.555753777117239,0.010334435430634623,0.5557546389468382,0.5487470736445124,0.562767401392553,0.014020327748040629,0.5202230040980045,0.588637005003547
S_input,10,303,S_03,2158,0,0.05051951567632587,0.0009644107996514714,0.05050963988507044,0.049850969488605,0.05117983078379595,0.0013288612951909487,0.047486531812724844,0.05384385927281325
S_noise,10,303,S_04,2158,0,0.4991521915640857,0.009342233039830011,0.4992614915686081,0.4928467892754626,0.5055555684036728,0.012708779128210168,0.46806059393437943,0.5294076319630169
S_input,10,303,S_04,2158,0,0.045375363729521855,0.0008757510460246053,0.045392908960394655,0.04478715592777153,0.04597213393423334,0.0011849780064618134,0.042619363724940525,0.048151295134168354
E_noise,10,404,,2158,0,1.8614564718126974e-15,5.735610310562224e-16,1.7796893822535812e-15,1.448506243321468e-15,2.1585003527488085e-15,7.099941094273406e-16,7.698426956492469e-16,4.456342087473424e-15
E_input,10,404,,2158,0,1.2423293749240248e-06,8.094470268390619e-07,1.088762144170897e-06,7.108395681708206e-07,1.58270808445543e-06,8.718685162846093e-07,2.2685765305373566e-08,1.068481122056209e-05
I_noise,10,404,,2158,0,0.37451933665727466,0.008809278810350943,0.3744255057259105,0.3686810808922372,0.38040505379106204,0.01172397289882482,0.33725424165493756,0.4041724859925982
I_input,10,404,,2158,0,0.034048417782154713,0.0008216258122574603,0.03404411260328327,0.03350536601651012,0.03460417199600614,0.0010988059794960203,0.030668549914094574,0.0371076102381023
S_noise,10,404,S_00,2158,0,0.4529516227082459,0.00922862184136238,0.4529692093159447,0.4465856975561172,0.4591242466581383,0.012538549102021068,0.42195533932688195,0.483374641581389
S_input,10,404,S_00,2158,0,0.041180401479162534,0.0008568505655364239,0.041180621897399704,0.04060966804431623,0.04174734156847136,0.0011376735241551278,0.03833895325734966,0.044112770913229064
S_noise,10,404,S_01,2158,0,0.31431202899887684,0.009764995646240438,0.31432623869277676,0.3078728186084044,0.32093785051947504,0.013065031911070668,0.28385143115595185,0.3465480620529917
S_input,10,404,S_01,2158,0,0.028581681041278048,0.0009025592201191704,0.028579878915891234,0.027991025633705244,0.02917551078550157,0.0011844851517963245,0.025836525107400855,0.031745762160024074
S_noise,10,404,S_02,2158,0,0.23205252936774445,0.009300436585625061,0.23204195756065382,0.2257487911152975,0.2382831769668837,0.0125343858515862,0.19931316786573697,0.2667264611766051
S_input,10,404,S_02,2158,0,0.021095268213423037,0.0008561394793899921,0.021096876433171957,0.020511024084059734,0.021659092189017966,0.0011480681049582317,0.018185430113683225,0.024171052604574448
S_noise,10,404,S_03,2158,0,0.5560248531997902,0.01032711170705605,0.5559832267505447,0.5490672365337111,0.5631904474968306,0.014123210963119415,0.5231341966416839,0.5890874326166041
S_input,10,404,S_03,2158,0,0.05055434981151814,0.0009679662562697718,0.05057018935783203,0.04988172307531796,0.05119560432855332,0.0013138812532353591,0.04767851068457282,0.05377479506729348
S_noise,10,404,S_04,2158,0,0.4993342800197793,0.009373486783994231,0.4993241527321418,0.49285410799910145,0.5056536741112182,0.012799566112116745,0.46874775777402994,0.5304539747083857
S_input,10,404,S_04,2158,0,0.04538977801910244,0.0008818070157252423,0.04538159848053215,0.04477682163623202,0.04596948620715394,0.001192664570921917,0.04227683189338668,0.04856601690154199
E_noise,10,505,,2158,0,1.8612331414951635e-15,5.712550081383733e-16,1.7750915102004357e-15,1.4568132268980773e-15,2.1631308067708113e-15,7.063175798727339e-16,7.824955068405828e-16,4.457447578844301e-15
E_input,10,505,,2158,0,1.2421929777411386e-06,8.07720545713546e-07,1.089981981011471e-06,7.130600344540312e-07,1.5793687866471147e-06,8.663087521930834e-07,2.271543884569483e-08,1.0699016987619001e-05
I_noise,10,505,,2158,0,0.374210920564352,0.008893981279384034,0.3741778906871358,0.3679632731394498,0.3803996119309346,0.012436338791484758,0.3487043809425505,0.40288335574512807
I_input,10,505,,2158,0,0.03402794361799604,0.0008297231998441242,0.03402029407508977,0.0334510227089396,0.034583719943790045,0.0011326972348504466,0.03131626813968242,0.03656730332646793
S_noise,10,505,S_00,2158,0,0.4528030527631251,0.009124064511950266,0.45300731278956674,0.4465334584192627,0.4589629304294499,0.012429472010187237,0.4214348013988223,0.48645500867089114
S_input,10,505,S_00,2158,0,0.04116903913644608,0.000852450009081883,0.041191429142876844,0.04057679516632474,0.04173622365504067,0.0011594284887159328,0.038216054226151985,0.04430349893351927
S_noise,10,505,S_01,2158,0,0.31368718102109083,0.009760633587990978,0.3134343492755076,0.30713853188231,0.32017270508620194,0.013034173203891941,0.28231210383042554,0.3480893343757854
S_input,10,505,S_01,2158,0,0.028521150115624325,0.0009039054873086446,0.02849536496452713,0.027921175021279724,0.029121268749056184,0.00120009372777646,0.025814733272107687,0.03179075123851268
S_noise,10,505,S_02,2158,0,0.2314659165266491,0.009397346512209468,0.23126222384398432,0.22523422685518563,0.23754351720779202,0.012309290352606389,0.19744665304764977,0.26382047242468587
S_input,10,505,S_02,2158,0,0.021038421942082216,0.0008670751886778919,0.021015779510267108,0.02047059206942751,0.02159351877281912,0.0011229267033916086,0.01814038378153278,0.0240830240875703
S_noise,10,505,S_03,2158,0,0.5558093328230906,0.01032045991491474,0.5558212493884984,0.5488554659099867,0.5627876038629469,0.013932137952960222,0.5233069212094238,0.5858260405595659
S_input,10,505,S_03,2158,0,0.05052527259815227,0.0009650865924901422,0.05052927931589225,0.049885040981600834,0.05117147722108832,0.0012864362394874873,0.047501318213796904,0.05333367970858337
S_noise,10,505,S_04,2158,0,0.49921799276648976,0.009312105112240043,0.4991090403682983,0.49290987953452536,0.5057709631829101,0.012861083648384786,0.46889262103465906,0.5284845302590812
S_input,10,505,S_04,2158,0,0.04538225735525551,0.0008803408437072847,0.04538410407967561,0.04479443053311767,0.04597099533704445,0.0011765648039267773,0.04281017763238478,0.04806419674673366
