epoch,train_loss,val_loss,val_macro_auroc,val_macro_ap,val_macro_f1_at_0p5,clean_count,clean_fraction,independent_count,independent_fraction,electrode_count,electrode_fraction,snr_20_count,snr_10_count,combo_RA_LA_LL_count,combo_V1_count,combo_V2_count,combo_V3_count,combo_V4_count,combo_V5_count,combo_V6_count,combo_RA_LA_count,combo_LA_LL_count,combo_RA_LL_count,actual_snr_db_count,actual_snr_db_mean,actual_snr_db_std,actual_snr_db_min,actual_snr_db_max,actual_snr_error_db_count,actual_snr_error_db_mean,actual_snr_error_db_std,actual_snr_error_db_min,actual_snr_error_db_max,rms_match_relative_error_count,rms_match_relative_error_mean,rms_match_relative_error_std,rms_match_relative_error_min,rms_match_relative_error_max,exposure_count,unique_records,exposure_min,exposure_max,order_sha256,epoch_seconds,elapsed_seconds
1,0.44573671581649693,0.42919172445192366,0.8403075251502046,0.6389911259150822,0.48227015678412827,8726,0.5107703114024819,8358,0.48922968859751814,0,0.0,4245,4113,2074,695,716,721,715,685,669,696,744,643,8358,15.078966212747677,4.999376290078773,10.00000000160364,19.999999903373322,8358,-4.712310580734218e-08,1.0477949193007233e-07,-2.0849579129844642e-07,1.1508120678627165e-07,8358,3.7228163313835532e-09,2.170482172965465e-09,2.1899757940478507e-13,1.2805795929928991e-08,17084,17084,1,1,6f1993399597817707f8a6b450062b2ac9dfbae97e3c26fdbafa3876f3c71b9f,52.83048490004148,52.87335849995725
2,0.37044476200478665,0.39451312716053893,0.8684100444807239,0.6904493769410726,0.5620497132269506,8504,0.4977756965581831,8580,0.5022243034418169,0,0.0,4359,4221,2117,716,741,715,700,716,654,736,781,704,8580,15.08041953318112,4.999353123601077,9.999999988591266,19.999999916216037,8580,-4.7238461654943696e-08,1.0447140630826761e-07,-2.1346665235455475e-07,1.272389553719222e-07,8580,3.7605360971420975e-09,2.1860871864745483e-09,2.8144910832941984e-13,1.206155853053847e-08,17084,17084,1,1,fbd58fae15581851333b2214e431e4c878b08718e1fb3a217b594860e952daf6,51.36395959998481,104.38434059999418
3,0.3449997263095943,0.4274929179172036,0.8785886677195623,0.7179731720605054,0.542667347340705,8562,0.5011706860220089,8522,0.49882931397799113,0,0.0,4249,4273,2131,675,736,712,714,726,735,751,685,657,8522,14.985918753030358,4.999980068394624,10.000000003085534,19.99999990777041,8522,-4.537377223597587e-08,1.0433550432829309e-07,-2.119334965300368e-07,1.103561881876658e-07,8522,3.7177789381692787e-09,2.1767260674264606e-09,1.7199465380028987e-12,1.1485916196440954e-08,17084,17084,1,1,ad67e97da31c6c6e8d53390b7c91f1e4d7043ce88f71d312e20617a99f4c028d,50.461639199987985,154.9975164999487
4,0.33198071964254317,0.34035122414004104,0.8915144511341893,0.741699231626405,0.6520268047045218,8440,0.49402950128775464,8644,0.5059704987122454,0,0.0,4304,4340,2140,744,753,728,699,722,704,726,714,714,8644,14.979176262270478,4.999956533293549,9.999999998917824,19.999999919171493,8644,-4.499467713731425e-08,1.0468555900778183e-07,-2.0609130046977953e-07,1.0890999924129119e-07,8644,3.731692005014594e-09,2.181827648100452e-09,2.2962739407297234e-13,1.265749427570103e-08,17084,17084,1,1,c142015265109bf3115a5aa0f57e38dc3fab483d906ce00cc06a64cef26d8520,50.40202519996092,205.55655939993449
5,0.3187177811900393,0.40757105121074827,0.8892438101706093,0.7453988266368812,0.6181680041394105,8415,0.4925661437602435,8669,0.5074338562397565,0,0.0,4297,4372,2171,688,756,724,719,769,663,746,697,736,8669,14.956742371052883,4.999812770742684,10.000000003332655,19.999999925971355,8669,-4.4450636013817683e-08,1.0467434008821516e-07,-2.1032118624475515e-07,1.0835039532253177e-07,8669,3.730134488649564e-09,2.1754980780114875e-09,3.2107194240952926e-13,1.2111921331731369e-08,17084,17084,1,1,dade26ffcc8a2911f46ab1e4d268ba84ddb9b1c58115b0808cdb5dc759a968f2,50.25891510001384,255.9701351999538
6,0.3086532481770079,0.32630736618984113,0.899263343257819,0.7656364910495221,0.6696881730558056,8571,0.5016974947319129,8513,0.4983025052680871,0,0.0,4273,4240,2132,698,707,694,713,719,678,682,751,739,8513,15.01938207553418,4.999962329182933,9.999999998887533,19.999999900442727,8513,-4.592711295958617e-08,1.0478914925519565e-07,-2.014280582329775e-07,1.1206161687482563e-07,8513,3.7443954824565926e-09,2.185458666869399e-09,9.748028625996138e-13,1.1175796452005062e-08,17084,17084,1,1,467dd47a25244e09706bde8ac41065cc546707cb4f27da0ad6133713ad558b08,49.665864899987355,305.77084879996255
7,0.30148021092852506,0.33742607836954414,0.9002790017258159,0.765945869608539,0.6763871486463924,8668,0.5073753219386561,8416,0.49262467806134397,0,0.0,4252,4164,2136,684,732,649,695,691,694,731,703,701,8416,15.05228132220771,4.9997265545657195,9.999999996887228,19.999999905049805,8416,-4.66135838312484e-08,1.046088946691748e-07,-2.0085546736936521e-07,1.1295306912018077e-07,8416,3.757253238549013e-09,2.1752609674813287e-09,1.3078702018402027e-12,1.1796194514168604e-08,17084,17084,1,1,9b1e3ba6fb1ffb38c9d8671f19590bb288d9a441da139fd6b1bf23228f78f504,49.012541600037366,354.9289963999763
8,0.2960237748057411,0.33895950928983126,0.9052515072943794,0.7782348435098718,0.670973635538828,8566,0.5014048232264107,8518,0.49859517677358933,0,0.0,4245,4273,2203,728,704,686,665,702,719,728,689,694,8518,14.983564171800664,4.9999728824221465,9.999999998161641,19.99999991202766,8518,-4.515167238211289e-08,1.0476790091236405e-07,-2.1456181897860915e-07,1.0366815850204603e-07,8518,3.728817645518353e-09,2.1689794041259416e-09,2.5917378060385004e-12,1.1138632635534263e-08,17084,17084,1,1,75468ff6879ce64a6a157dc434c08871dd4de7635c12c2ce1f1b2ad2f4075bd5,48.921876800013706,404.01437079999596
9,0.28919669522443103,0.3202686072340216,0.907098167541293,0.77953252028011,0.6786307094029327,8500,0.4975415593537813,8584,0.5024584406462187,0,0.0,4275,4309,2158,685,773,714,703,707,703,683,722,736,8584,14.98019566768022,4.9999606750325984,10.000000000992147,19.999999918232035,8584,-4.5274111901948705e-08,1.0462717635817172e-07,-2.0498249142519853e-07,1.1025880297665935e-07,8584,3.755764640009792e-09,2.193925329154653e-09,9.15507773419999e-13,1.216956312700836e-08,17084,17084,1,1,10fb885a96964f2e8bd2b999aae630737767628593af55893ce76b666480277d,49.18340600002557,453.3484572999878
10,0.28435388972206044,0.390981994492921,0.9024873316985651,0.7730634790682529,0.6489043075179534,8626,0.5049168812924374,8458,0.4950831187075626,0,0.0,4230,4228,2095,730,721,688,760,674,743,698,672,677,8458,15.001182267115325,4.999999756535446,9.999999999034472,19.999999907049567,8458,-4.548812667427196e-08,1.0445421246778475e-07,-2.0755134144678777e-07,1.1296816637695883e-07,8458,3.7198397939225582e-09,2.172468011581176e-09,8.324284387460309e-13,1.2123955041098214e-08,17084,17084,1,1,c43fa8848e27a9dad9600a8851c9d51e9dcfa0822f675e9318c3128612db87e3,48.620407399954274,502.1339339999249
11,0.28161883948000555,0.3585544445474683,0.9089503509066205,0.7838184485779804,0.6605291595864328,8640,0.5057363615078436,8444,0.4942636384921564,0,0.0,4209,4235,2124,744,676,715,694,717,707,694,617,756,8444,14.984604407520699,4.999976193662005,10.000000002272495,19.999999907486426,8444,-4.534524026902095e-08,1.0479367590845952e-07,-2.17357076337521e-07,1.1636370977896604e-07,8444,3.730932616289589e-09,2.1746988225949426e-09,1.6645364631539353e-13,1.2522315529130146e-08,17084,17084,1,1,88a93b5ea0353976849c43c2a4ba4065642222ecd9d1b6e666b96292fc431050,50.818153500091285,553.0932493999135
12,0.2786675558048901,0.35281106510233456,0.9099404314351289,0.7862174748770998,0.659530766964304,8495,0.4972488878482791,8589,0.5027511121517209,0,0.0,4335,4254,2132,775,692,737,725,705,697,713,685,728,8589,15.047153289378203,4.999777547332221,10.000000008224907,19.999999917887916,8589,-4.628369005155859e-08,1.0479729480731535e-07,-2.1045881126724453e-07,1.1530675791959766e-07,8589,3.7021591592860814e-09,2.167684156452322e-09,2.7567812151177887e-13,1.2495015940805283e-08,17084,17084,1,1,9a2566e82306804b6e2ffe90b184ce2e448f968914d1fea2eaf4e4c564dac89a,51.41616159991827,604.7686427999288
13,0.2772454362693198,0.3600876715176592,0.9088584769351788,0.7851581609865544,0.6490488410260382,8483,0.49654647623507375,8601,0.5034535237649262,0,0.0,4325,4276,2110,688,748,729,709,725,698,776,732,686,8601,15.028485013930991,4.999918755588084,10.000000007619498,19.999999908704453,8601,-4.59457660156042e-08,1.046726031071498e-07,-2.0451028959200812e-07,1.1975451030821205e-07,8601,3.7404398701462364e-09,2.2123297502023134e-09,4.141064715581702e-13,1.1596734362404546e-08,17084,17084,1,1,92692ad88ef42c9e5f3a2c7913adec10ff5438cb0395745bd6c625bc60786d80,49.490794100100175,654.4239576999098
14,0.27337340498746515,0.3357023007105359,0.9124954328508247,0.7915851124176906,0.6775010333619373,8440,0.49402950128775464,8644,0.5059704987122454,0,0.0,4385,4259,2193,728,661,754,747,661,719,749,752,680,8644,15.072882877498033,4.999468675778878,10.00000000224102,19.999999911277918,8644,-4.707392565195e-08,1.0471775779405338e-07,-2.0904880315697483e-07,1.1363059471136694e-07,8644,3.751285820708637e-09,2.16488457969745e-09,7.454196023840986e-14,1.1752752861209599e-08,17084,17084,1,1,105d3d5f15549c0cd36e10ae45564914a52819ec203428c987ac248251dbc7f5,49.006724299979396,703.5655890000053
15,0.26936303593045624,0.31173378479114117,0.915405901717711,0.7952289656784981,0.712336298477583,8414,0.49250760945914307,8670,0.5074923905408569,0,0.0,4391,4279,2136,750,742,697,746,697,744,749,725,684,8670,15.064590495221148,4.999582684958661,10.000000003769788,19.999999912184585,8670,-4.6878046071992857e-08,1.0460494771794429e-07,-2.102671174952775e-07,1.1441860792160696e-07,8670,3.737617240502481e-09,2.16987317802255e-09,9.161236565686796e-13,1.3269103509583307e-08,17084,17084,1,1,ddc24e28ad6aa32902fbbfd441e2478c7e93ced1ab24d38ba5813ebadee6b93e,49.586835400084965,753.310727700009
16,0.26983276523128097,0.34489741313157524,0.912610205808282,0.7906333735168717,0.6741161578793843,8592,0.5029267150550223,8492,0.49707328494497777,0,0.0,4161,4331,2168,703,666,677,719,687,736,729,694,713,8492,14.899905750298805,4.998997910838187,10.000000000830486,19.999999907666957,8492,-4.338937294640184e-08,1.0452455384585119e-07,-2.0350180562900277e-07,1.1446090297795308e-07,8492,3.747070802028295e-09,2.186130668177881e-09,1.2716169086993519e-12,1.2000480113450925e-08,17084,17084,1,1,9be9542dce39f234d820137f04ca88f7f0b4916612013e203fdd74523e3f65f9,48.944903400028124,802.4110469999723
17,0.2639243680834631,0.3095801168530207,0.9160137188721615,0.7976058624923229,0.716727033008534,8524,0.49894638258019197,8560,0.501053617419808,0,0.0,4279,4281,2074,750,739,738,691,718,741,737,674,698,8560,14.998831730015667,4.999999759631475,10.00000000144662,19.999999906797413,8560,-4.5685269222075454e-08,1.0470908566000767e-07,-2.0526460531300472e-07,1.19354000460703e-07,8560,3.72081936432401e-09,2.166574643138464e-09,1.8025755197632238e-13,1.0919710063631861e-08,17084,17084,1,1,cf554178a4615bbb57c6eefb7f59daa3184384bad36a2f1fd667aa755d3fc4ba,48.992358100018464,851.5363204999594
18,0.2618668970305868,0.3165401023676322,0.9164548396352995,0.7970324108302391,0.702777442007428,8497,0.49736595645048,8587,0.50263404354952,0,0.0,4246,4341,2219,703,705,697,716,704,722,709,708,704,8587,14.944683780233419,4.9996938990607696,10.000000000843002,19.99999990932881,8587,-4.415227977687e-08,1.0442489580059405e-07,-2.0368918285385007e-07,1.175226564953391e-07,8587,3.749879754198915e-09,2.1808717592679246e-09,6.774150600898693e-16,1.166438673223467e-08,17084,17084,1,1,ac4ebf86deb53cbd4adf2c35d414c5ab2849f307ac6c63e658323171fce69778,48.797200899920426,900.4892562999157
19,0.2574849151470878,0.3089662825016918,0.9164124261897445,0.7988496119533963,0.7214003429886799,8531,0.4993561226878951,8553,0.5006438773121049,0,0.0,4250,4303,2148,752,702,690,675,734,756,707,692,697,8553,14.96901667447281,4.999903899151662,9.999999983347282,19.999999911702524,8553,-4.480697594931627e-08,1.0434910002605415e-07,-2.0685072144033256e-07,1.1371644070834463e-07,8553,3.6947255103883884e-09,2.170058558417992e-09,2.0070804927963157e-12,1.1733976098641075e-08,17084,17084,1,1,c1e923e91119c96023f2b69364f32fe61fb4b3e80c616ee0efebf311aa364560,49.11413490003906,949.7375861000037
20,0.25608845169539757,0.3103483856724226,0.9180464763816836,0.8024547590814521,0.713847457881605,8504,0.4977756965581831,8580,0.5022243034418169,0,0.0,4302,4278,2194,718,690,723,714,716,706,700,721,698,8580,15.01398596833342,4.9999803352227215,9.999999999661718,19.999999905618544,8580,-4.565259318074412e-08,1.0465144641774179e-07,-2.023217042790293e-07,1.1453957071694276e-07,8580,3.750594349599193e-09,2.1767907154971565e-09,4.80957794486749e-13,1.167921311130683e-08,17084,17084,1,1,ee31aee25f2b1c26c1c38f354cde4d50069246c94fcab21a905f4df51b031fb6,49.116454000002705,998.9923580000177
21,0.2586210768149123,0.3364864993017629,0.9165699237223066,0.8001733681160614,0.6885462346819129,8459,0.4951416530086631,8625,0.5048583469913369,0,0.0,4291,4334,2146,701,729,684,726,724,764,720,733,698,8625,14.975072418827375,4.999937757456726,10.000000002574156,19.999999914912706,8625,-4.494074226718145e-08,1.0473932679271782e-07,-2.066837829772794e-07,1.1386589626738441e-07,8625,3.714286366155189e-09,2.172549787089631e-09,2.579383791009087e-13,1.1963176675335897e-08,17084,17084,1,1,acf4c49a4cae1768a4890c163868ad8a191fb0a924d12219668a47b9f1dc6476,49.18755609996151,1048.3541099999566
22,0.25430992611312553,0.32662503183832375,0.9164891952112801,0.7986857614446915,0.6921008553133966,8615,0.5042730039803325,8469,0.4957269960196675,0,0.0,4205,4264,2091,696,754,721,722,670,689,708,710,708,8469,14.96516703495607,4.99987856143387,9.999999999857609,19.99999991932758,8469,-4.498252966605958e-08,1.0464229787181422e-07,-2.0761476093866804e-07,1.204472876992213e-07,8469,3.7015762474087963e-09,2.162462991015305e-09,5.17892889592746e-15,1.1463437735320834e-08,17084,17084,1,1,d57decce2fa88526404db66f8a95dff32836224840a9f3648a3500ee7f63811f,48.61033709999174,1097.0996882999316
23,0.25292497776314404,0.32538587054913,0.9167042955191247,0.7983394170505498,0.6992667999158868,8562,0.5011706860220089,8522,0.49882931397799113,0,0.0,4260,4262,2155,692,710,694,714,712,691,727,694,733,8522,14.998826520968066,4.999999758225363,10.000000001082576,19.999999916083045,8522,-4.5565611933718733e-08,1.0486131461871129e-07,-2.0084223706362536e-07,1.1825644286034276e-07,8522,3.763581133362975e-09,2.1781418805112545e-09,3.594281870025497e-14,1.3820596047045885e-08,17084,17084,1,1,7f97f395137fd2168a25f3a8b38ac482541dec9f5fa6e78846172fdba5ad6e86,48.60328549996484,1145.8531756999437
24,0.2551631493399278,0.32676666369531493,0.9154639091329828,0.7966383847587595,0.6932308395173015,8610,0.5039803324748302,8474,0.49601966752516974,0,0.0,4254,4220,2186,740,737,697,665,644,666,701,711,727,8474,15.020061318279524,4.99995965019077,9.999999987389357,19.999999908385707,8474,-4.589323911230956e-08,1.0456615090968056e-07,-2.0713909165692712e-07,1.124863064916326e-07,8474,3.761660097768379e-09,2.1672550142698254e-09,1.4387745484964958e-12,1.2559201794377562e-08,17084,17084,1,1,ee85b07b6819981e3f591abe13bb24b9540aca52521645a0f2dba87a0f4093a5,48.45763209997676,1194.4389937999658
25,0.25017968392349804,0.3321939880116899,0.9181784439794731,0.8016266062253907,0.6830378694517453,8557,0.5008780145165067,8527,0.49912198548349335,0,0.0,4256,4271,2063,751,708,752,722,744,636,710,741,700,8527,14.991204364405862,4.999992160026167,10.000000005468104,19.999999916012897,8527,-4.5116831751771554e-08,1.0452525934639564e-07,-2.042153290915394e-07,1.229545674164001e-07,8527,3.709408424941285e-09,2.1598215127546657e-09,5.884150945562101e-13,1.2376754813494036e-08,17084,17084,1,1,89fc5ecdbe365bbd4d89fb8ec7996917b7b55d11c1a66a82d19a87d4ec5a19bb,49.39828670001589,1243.9739112999523
