epoch,train_loss,val_loss,val_macro_auroc,val_macro_ap,val_macro_f1_at_0p5,clean_count,clean_fraction,independent_count,independent_fraction,electrode_count,electrode_fraction,snr_20_count,snr_10_count,combo_RA_LA_LL_count,combo_V1_count,combo_V2_count,combo_V3_count,combo_V4_count,combo_V5_count,combo_V6_count,combo_RA_LA_count,combo_LA_LL_count,combo_RA_LL_count,actual_snr_db_count,actual_snr_db_mean,actual_snr_db_std,actual_snr_db_min,actual_snr_db_max,actual_snr_error_db_count,actual_snr_error_db_mean,actual_snr_error_db_std,actual_snr_error_db_min,actual_snr_error_db_max,rms_match_relative_error_count,rms_match_relative_error_mean,rms_match_relative_error_std,rms_match_relative_error_min,rms_match_relative_error_max,exposure_count,unique_records,exposure_min,exposure_max,order_sha256,epoch_seconds,elapsed_seconds
1,0.3620594582354484,0.3462182477824841,0.8942569811089467,0.751843456689887,0.6485459425207356,8541,0.4999414656988996,0,0.0,8543,0.5000585343011005,4237,4306,2110,738,665,708,720,724,714,748,687,729,8543,14.959616015583,4.999836807219728,10.000000000879922,19.99999991551927,8543,-4.4349105784572175e-08,1.0464525821486324e-07,-1.9709580101334723e-07,1.1897228091584111e-07,0,,,,,17084,17084,1,1,dd79ddcdd88e1eb2b42f54e9f26c7097f048086111c95340d588a7cf5423f0bb,65.81703039992135,65.85720359999686
2,0.2976056224245903,0.3241782881951399,0.9020043306763414,0.7654136829757607,0.6625002358399592,8588,0.5026925778506205,0,0.0,8496,0.49730742214937956,4215,4281,2173,708,716,718,659,705,738,703,702,674,8496,14.961158147510316,4.999849025270346,9.999999997736321,19.999999908361737,8496,-4.4580077638618764e-08,1.0465128290664987e-07,-2.0073267492648483e-07,1.3580088875642105e-07,0,,,,,17084,17084,1,1,6a76c8291ac70284f98b9e46a2f5fb72b97a5fbf1826ddf1a52c7a26e0506abe,66.87284769990947,132.93002520001028
3,0.27859216793112107,0.31152857435938364,0.9087505274071003,0.776165379017746,0.6750000688197022,8527,0.49912198548349335,0,0.0,8557,0.5008780145165067,4230,4327,2101,722,749,728,718,706,718,734,678,703,8557,14.943321213282122,4.999678637688044,9.999999995292173,19.999999910714827,8557,-4.416792102882743e-08,1.0481147851590791e-07,-2.046415801260082e-07,1.157547142582871e-07,0,,,,,17084,17084,1,1,1783fa2800479d5691fa2e1ad7a94ef1c02888e21ebb050454b58e6161168133,66.42508039996028,199.57841560000088
4,0.26420248348158604,0.298397811988971,0.9120322349543327,0.7883543343608281,0.7152034299589338,8431,0.4935026925778506,0,0.0,8653,0.5064973074221494,4292,4361,2247,748,736,648,769,720,736,721,675,653,8653,14.960129390217949,4.999840927405447,10.000000004071337,19.999999909567016,8653,-4.466012799828498e-08,1.0467430122270129e-07,-1.9692237529511658e-07,1.2098295698592665e-07,0,,,,,17084,17084,1,1,2dcbe16aea3bd2265a2a0eb3d0e3d161422c8e6c646ea7e681b45c0ece09ee39,66.67064550006762,266.4303843000671
5,0.2533573688186044,0.2972138350185455,0.9126238881598088,0.7935009249724074,0.7149203675574134,8518,0.49859517677358933,0,0.0,8566,0.5014048232264107,4237,4329,2136,684,676,704,726,751,706,725,733,725,8566,14.946299278461971,4.999711511656631,9.999999993212718,19.999999901990158,8566,-4.44425332466559e-08,1.0454239391584537e-07,-2.0644419151949478e-07,1.1578685388258236e-07,0,,,,,17084,17084,1,1,dcc0598f3e03e4af9d5c3e1a5c95db8fa32ce607b7ddf7bd189a73a45dd45360,66.70222059998196,333.3573324000463
6,0.2437851230745376,0.3085029327691657,0.9116717042963964,0.785921523225593,0.7183374624839957,8529,0.4992390540856942,0,0.0,8555,0.5007609459143058,4278,4277,2148,697,698,720,713,721,695,674,712,777,8555,15.000584407916906,4.999999862043091,10.000000004611707,19.999999909642703,8555,-4.561903868648553e-08,1.045995002428029e-07,-2.0545838452790122e-07,1.1398632970838207e-07,0,,,,,17084,17084,1,1,4dbb1608aa1c1c0bc4634da88bc3d11895ac610286a05df7e3ee477618e99e40,66.62052610004321,400.18992480007
7,0.23469676271698509,0.33229779436115003,0.9085290039709981,0.7820411338208466,0.6356902649129357,8542,0.5,0,0.0,8542,0.5,4265,4277,2129,719,681,729,715,716,736,713,717,687,8542,14.992975838566844,4.9999949623261335,9.999999998691562,19.99999991118511,8542,-4.530110164729794e-08,1.0465005670564707e-07,-2.0427937030831345e-07,1.180001234502015e-07,0,,,,,17084,17084,1,1,49d77b004f52c6c2ab646dba123426d5699ef78ed9cfbcca1ab1f13218b355f7,66.58651739999186,466.93687380000483
8,0.2230400927268881,0.31164298072554525,0.910749076859681,0.7874410857326455,0.7088589010508995,8437,0.4938538983844533,0,0.0,8647,0.5061461016155467,4265,4382,2148,720,693,718,702,738,750,761,696,721,8647,14.932346434496555,4.999542175215281,9.999999998650187,19.999999904757047,8647,-4.4050919079127554e-08,1.0471516291031344e-07,-2.0849672210943027e-07,1.1265988675290828e-07,0,,,,,17084,17084,1,1,8606379c14dfff0d34406773ec0ead6d95f8abfe76dc76a6687ff197837dd3d7,66.81639269995503,533.9159153000219
9,0.2122047059961907,0.3476042934421724,0.9085913321506947,0.7800934315921958,0.6703976579792987,8424,0.4930929524701475,0,0.0,8660,0.5069070475298525,4300,4360,2187,724,692,767,735,712,702,706,738,697,8660,14.965357923011917,4.999879887561191,9.99999999350292,19.999999909160458,8660,-4.4655519623051603e-08,1.047796092290787e-07,-2.054296466269534e-07,1.1644610786731846e-07,0,,,,,17084,17084,1,1,15deecc79ec03946693b6d73a2960e377133ce35cbb79f885dfca75ab1256ed0,66.62489570002072,600.6947892000899
10,0.2006396813293275,0.3605787437704269,0.9089325167411457,0.7776077518755653,0.6916341518339824,8581,0.5022828377429174,0,0.0,8503,0.4977171622570826,4241,4262,2102,709,729,684,732,757,714,687,735,654,8503,14.987651371667189,4.999984647448064,9.999999996502545,19.999999912925205,8503,-4.547969954766526e-08,1.045667667689275e-07,-2.0209128237524965e-07,1.1282516076960292e-07,0,,,,,17084,17084,1,1,3ae9bff607737790c290ba9f84d7fbb09ab02dfea0ea60b3438005e0e5cc3904,66.68671490007546,667.546181700076
11,0.1902276095978914,0.36889935911868293,0.9069091609573858,0.7728647429173939,0.6817688399318576,8553,0.5006438773121049,0,0.0,8531,0.4993561226878951,4298,4233,2134,725,697,685,714,718,728,778,681,671,8531,15.038096307992662,4.999854760875666,9.999999996825517,19.999999903242383,8531,-4.6479264147963196e-08,1.0455826752093513e-07,-2.0321426674740906e-07,1.2028259988028367e-07,0,,,,,17084,17084,1,1,1272944b8be32c28cf2d109e7512ce00bf6bddb4c4e13295e358655bc9b3cf70,66.47724750009365,734.1771616000915
12,0.17532923215447643,0.3589332345925195,0.9049573525968654,0.7703693379177345,0.685405617386568,8586,0.5025755092484195,0,0.0,8498,0.4974244907515804,4246,4252,2161,737,691,744,698,663,710,696,706,692,8498,14.99646971213419,4.999998649971632,9.999999995421208,19.999999918415355,8498,-4.545583189139409e-08,1.0455375140348667e-07,-2.0299052394534556e-07,1.1849463454893794e-07,0,,,,,17084,17084,1,1,1139581385f09afb976b26edf118e0449bb2b0046e90d86c920d856503090eee,66.28287019999698,800.6285050000297
13,0.1636219566138001,0.39657689226862436,0.8971877975474871,0.75748555431668,0.6789142992690567,8442,0.49414656988995553,0,0.0,8642,0.5058534301100445,4292,4350,2126,708,726,703,701,731,742,717,744,744,8642,14.966442908119092,4.999887287352011,10.000000010428753,19.999999908789462,8642,-4.490104213394995e-08,1.0462432261559432e-07,-2.123737417036864e-07,1.1805797939246077e-07,0,,,,,17084,17084,1,1,a66b01cac11420822763ef0d68167e4c14b34d26705d1da8a43f8410c15ba9b7,66.61854069994297,867.3868205000181
14,0.15140110986960126,0.4365594126249404,0.8935091344398712,0.7481727502507868,0.6487155236251868,8558,0.5009365488176071,0,0.0,8526,0.49906345118239287,4302,4224,2092,727,691,728,699,666,732,707,739,745,8526,15.045742388506463,4.999790654719919,9.99999997998836,19.999999904961577,8526,-4.639853277380064e-08,1.0464896535862264e-07,-2.1052947829502955e-07,1.1758303664066716e-07,0,,,,,17084,17084,1,1,8f4da853421afada707ac04945fb734f352ac750cd99cb39e8be26a9f13bef83,81.2784823999973,948.8229488000507
15,0.14267627193082888,0.4531964378054744,0.8955089983224147,0.756860013511421,0.6856170146651206,8491,0.4970147506438773,0,0.0,8593,0.5029852493561227,4354,4239,2184,761,697,706,731,724,662,693,699,736,8593,15.06691488388155,4.999552115337339,10.000000004541459,19.9999999076368,8593,-4.6876045003978865e-08,1.0460802385430005e-07,-2.047319078712917e-07,1.111972700584829e-07,0,,,,,17084,17084,1,1,95291444b387955d6505a23192be4e74edf0bac283b1ad4c45310327615ae647,78.82897159992717,1028.2915711000096
16,0.13010871107880836,0.43804378958917173,0.8930995345123336,0.7554494391359596,0.673053106763349,8520,0.49871224537579023,0,0.0,8564,0.5012877546242098,4218,4346,2096,716,723,700,716,746,699,681,723,764,8564,14.925268522073834,4.999441386219905,10.000000003886312,19.99999990163456,8564,-4.4016778301534966e-08,1.0464874813079831e-07,-2.0519956223097324e-07,1.1049473336299798e-07,0,,,,,17084,17084,1,1,ae407f89eb2d6d804221ff817fa452fa8dd3d20f51a40d0251906e9090cdafbd,66.93684949993622,1095.3748515000334
17,0.11602603318442285,0.4849497280938539,0.89678827464056,0.7589303419979265,0.6827291737632327,8521,0.49877077967689065,0,0.0,8563,0.5012292203231093,4274,4289,2139,726,685,729,698,745,717,697,712,715,8563,14.991241342208982,4.999992224771874,10.00000000389164,19.999999908427984,8563,-4.515526084927276e-08,1.0470464805913779e-07,-2.1105737246784884e-07,1.1649673226088453e-07,0,,,,,17084,17084,1,1,8476d345ad15bf1f0f5e35e1c723127f2b232ae0d56374f59348b422de1ef499,66.67437819996849,1162.20922910003
18,0.10145428355279948,0.47777352659144584,0.8859354914311155,0.7411635945945634,0.6655301158722162,8479,0.49631233903067196,0,0.0,8605,0.503687660969328,4390,4215,2166,730,721,722,710,724,717,664,733,718,8605,15.101685019042698,4.99896580392697,9.999999997024396,19.99999990310721,8605,-4.777891891886449e-08,1.0464379501661469e-07,-2.0907502218392437e-07,1.1164235580451987e-07,0,,,,,17084,17084,1,1,161b23d5dd7b5c1c0b1a86acb0b383933af27553fc787bf9fb0d848963d0f13c,66.94596079993062,1229.3249324000208
19,0.10054203756615865,0.5851352755310151,0.8884287332777294,0.7442747158094845,0.6346430085220731,8450,0.49461484429875907,0,0.0,8634,0.5053851557012409,4374,4260,2119,733,764,694,753,681,697,738,728,727,8634,15.066018021133885,4.999564038450352,10.000000006857658,19.999999909167848,8634,-4.696896560635982e-08,1.0480850690941189e-07,-2.0074556061899784e-07,1.1568035240827612e-07,0,,,,,17084,17084,1,1,8600897ac2229eafd83713645dfd23a4c520de1fb38fcb5a1b2527c72144988b,66.81571530003566,1296.3189098000294
20,0.08952634497077927,0.4884779829070153,0.8941810833606023,0.7519726139504893,0.6928557626200783,8619,0.5045071411847343,0,0.0,8465,0.4954928588152657,4148,4317,2096,673,722,698,721,705,734,681,758,677,8465,14.900177156861812,4.999003337613874,10.000000008927415,19.999999904374008,8465,-4.3374454686363715e-08,1.0474560706402405e-07,-2.0229206398880706e-07,1.1780953812490225e-07,0,,,,,17084,17084,1,1,16e4722a8ec6f388e8298b128504d8c4a20b506a33326e63cfae9d9ee60e1a10,66.81110349996015,1363.2953356000362
21,0.08703151967152307,0.5641014672058937,0.8888772608176604,0.7486931484230059,0.6653212132200997,8566,0.5014048232264107,0,0.0,8518,0.49859517677358933,4320,4198,2117,730,721,685,708,676,684,744,746,707,8518,15.071613007687489,4.999487026938659,10.000000000525745,19.999999911036515,8518,-4.7020189339770615e-08,1.0458051142470575e-07,-2.141609165562386e-07,1.25090370062253e-07,0,,,,,17084,17084,1,1,c3eb46a19fd51b443987a3cb993f5578c9d5186e40d4e80d7b158715f1e8efcc,72.58235120004974,1436.0319961000932
22,0.0756665786405102,0.5457242177339324,0.895224761170154,0.7574405768539424,0.6856892311050312,8603,0.5035705923671271,0,0.0,8481,0.49642940763287285,4215,4266,2056,698,721,742,681,706,724,720,716,717,8481,14.969932746089363,4.999909491828348,9.99999999757036,19.99999990308779,8481,-4.4855102411023306e-08,1.0445907596455847e-07,-2.1111005921170545e-07,1.1378045172705242e-07,0,,,,,17084,17084,1,1,74226d170d07cae2c7b6dd5a3249ef3046caf455c939122f67bf0f66d03c43d8,67.01178160007112,1503.2065456000855
23,0.06759178905360343,0.5371552600220665,0.8941901248405466,0.7492393139456336,0.6856398842385275,8468,0.4956684617185671,0,0.0,8616,0.504331538281433,4266,4350,2106,718,775,707,693,700,728,740,697,752,8616,14.95125343749061,4.999762267897661,10.000000006858215,19.999999905875015,8616,-4.440354026901589e-08,1.0493434579067071e-07,-2.070757965100256e-07,1.20831298744406e-07,0,,,,,17084,17084,1,1,c042a6b22aacc9a63ac78f6870ee029a38623a34f606a019d4b42ea83e97c1f8,67.26760490005836,1570.6437672000611
24,0.06334897873692479,0.5857267085903733,0.8919611570844186,0.7481349572930774,0.6837850132996743,8457,0.4950245844064622,0,0.0,8627,0.5049754155935379,4381,4246,2108,676,715,713,742,707,754,724,755,733,8627,15.078242679354574,4.9993876664121,10.000000007347406,19.99999990626,8627,-4.6969757971258947e-08,1.0445719995221833e-07,-2.044524585187446e-07,1.2105643065751792e-07,0,,,,,17084,17084,1,1,670698fed02582844482c7d018dbec37bd6961aac6b024d11d261ca135fc74f0,67.1045856999699,1637.902878300054
25,0.06710332943799484,0.5619020050969618,0.8930032041506119,0.7512695226200399,0.6838805863046545,8549,0.5004097401077031,0,0.0,8535,0.4995902598922969,4306,4229,2182,696,718,742,704,685,703,665,716,724,8535,15.045108330799751,4.9997964152246155,10.000000005073034,19.999999908848174,8535,-4.647031385688435e-08,1.0486074831296162e-07,-2.1033305230844235e-07,1.178875823626413e-07,0,,,,,17084,17084,1,1,666f8476beea57c12bcfd286a5a4bc0aa8e586853b360ffad3c9385a798fa810,67.33756599994376,1705.4029841000447
