epoch,train_loss,val_loss,val_macro_auroc,val_macro_ap,val_macro_f1_at_0p5,clean_count,clean_fraction,independent_count,independent_fraction,electrode_count,electrode_fraction,snr_20_count,snr_10_count,combo_RA_LA_LL_count,combo_V1_count,combo_V2_count,combo_V3_count,combo_V4_count,combo_V5_count,combo_V6_count,combo_RA_LA_count,combo_LA_LL_count,combo_RA_LL_count,actual_snr_db_count,actual_snr_db_mean,actual_snr_db_std,actual_snr_db_min,actual_snr_db_max,actual_snr_error_db_count,actual_snr_error_db_mean,actual_snr_error_db_std,actual_snr_error_db_min,actual_snr_error_db_max,rms_match_relative_error_count,rms_match_relative_error_mean,rms_match_relative_error_std,rms_match_relative_error_min,rms_match_relative_error_max,exposure_count,unique_records,exposure_min,exposure_max,order_sha256,epoch_seconds,elapsed_seconds
1,0.4456612113361698,0.42411227614548536,0.8405523950287922,0.6397561577444273,0.48794032619544725,8557,0.5008780145165067,0,0.0,8527,0.49912198548349335,4284,4243,2106,705,732,753,724,732,702,690,706,677,8527,15.024041234635604,4.999942097530914,10.000000001003631,19.99999990540757,8527,-4.6002370377507294e-08,1.0461752361619813e-07,-2.068856055359447e-07,1.1984136705223136e-07,0,,,,,17084,17084,1,1,6f1993399597817707f8a6b450062b2ac9dfbae97e3c26fdbafa3876f3c71b9f,39.44376850000117,39.482041500043124
2,0.37071905681635337,0.40147670953493747,0.86801095221746,0.6900630541469759,0.5616442104344455,8609,0.5039217981737298,0,0.0,8475,0.4960782018262702,4228,4247,2123,702,715,706,714,718,691,711,698,697,8475,14.98879051513723,4.999987330897764,10.000000006045699,19.999999909982037,8475,-4.533474514036005e-08,1.0473019750823725e-07,-2.0079917106841094e-07,1.1541161981654113e-07,0,,,,,17084,17084,1,1,fbd58fae15581851333b2214e431e4c878b08718e1fb3a217b594860e952daf6,39.43277359998319,79.06665219995193
3,0.3457763032942794,0.4357044472387764,0.8777425694418051,0.7163768809054292,0.5399463403819093,8566,0.5014048232264107,0,0.0,8518,0.49859517677358933,4279,4239,2123,701,748,663,729,733,696,729,714,682,8518,15.023479644067839,4.999944766388204,9.999999996506046,19.999999907024254,8518,-4.6000252086647536e-08,1.0454412742718371e-07,-2.137868833074208e-07,1.2701496565625803e-07,0,,,,,17084,17084,1,1,ad67e97da31c6c6e8d53390b7c91f1e4d7043ce88f71d312e20617a99f4c028d,39.82197819999419,119.04441760003101
4,0.33275320296319916,0.3426927442819519,0.8909283902401031,0.7407236948774171,0.6510283496013722,8471,0.4958440646218684,0,0.0,8613,0.5041559353781316,4347,4266,2180,680,721,685,706,705,756,722,741,717,8613,15.047021897255693,4.999778784762006,10.000000007610563,19.99999990770998,8613,-4.631797620008913e-08,1.0482161743800076e-07,-2.1273390871101583e-07,1.3131747955696937e-07,0,,,,,17084,17084,1,1,c142015265109bf3115a5aa0f57e38dc3fab483d906ce00cc06a64cef26d8520,40.52703769993968,159.72495099995285
5,0.3193032662487789,0.4021850408845601,0.8895913784587023,0.745760064060089,0.6185516819737982,8600,0.5033949894638258,0,0.0,8484,0.4966050105361742,4278,4206,2150,753,693,687,695,695,710,702,724,675,8484,15.042432768408927,4.999819838325064,10.000000004116355,19.999999909081193,8484,-4.630111526473261e-08,1.0486163241406535e-07,-2.0785584453619776e-07,1.1235367836093246e-07,0,,,,,17084,17084,1,1,dade26ffcc8a2911f46ab1e4d268ba84ddb9b1c58115b0808cdb5dc759a968f2,43.856302200001664,203.85614639997948
6,0.3090489484462211,0.3261014973017398,0.8990569614671413,0.7652656477042438,0.6745108233191847,8487,0.49678061343947555,0,0.0,8597,0.5032193865605245,4293,4304,2127,718,710,752,743,710,733,690,721,693,8597,14.993602373917586,4.9999958032336025,10.000000004578386,19.99999991520038,8597,-4.5531059557781e-08,1.0467843166918593e-07,-2.0674688983035594e-07,1.2255862102961146e-07,0,,,,,17084,17084,1,1,467dd47a25244e09706bde8ac41065cc546707cb4f27da0ad6133713ad558b08,40.76320179994218,244.757412499981
7,0.301875417913829,0.3327898345644632,0.9007278639878843,0.7665872917607282,0.6808509182581581,8554,0.5007024116132054,0,0.0,8530,0.49929758838679467,4312,4218,2117,723,698,700,709,727,710,694,683,769,8530,15.055099601587516,4.999696289732863,10.00000000380733,19.999999916625647,8530,-4.6712602228999455e-08,1.0472863108846536e-07,-2.0153838065084528e-07,1.1682664080581162e-07,0,,,,,17084,17084,1,1,9b1e3ba6fb1ffb38c9d8671f19590bb288d9a441da139fd6b1bf23228f78f504,41.031789399916306,285.9531213999726
8,0.29696873928003975,0.3370381327621979,0.9051528184086173,0.7781089641921066,0.6735537213078954,8397,0.4915125263404355,0,0.0,8687,0.5084874736595645,4354,4333,2170,704,725,765,728,750,714,701,704,726,8687,15.012086980865268,4.999985286376189,9.999999991235782,19.999999897766763,8687,-4.572618893900803e-08,1.0475622824574215e-07,-2.0995444316440626e-07,1.1227083263065651e-07,0,,,,,17084,17084,1,1,75468ff6879ce64a6a157dc434c08871dd4de7635c12c2ce1f1b2ad2f4075bd5,41.423150500049815,327.5451033000136
9,0.2897511545304419,0.32106489054199033,0.9069677213900876,0.7795801794296296,0.6761718261827425,8453,0.4947904472020604,0,0.0,8631,0.5052095527979396,4335,4296,2110,725,734,744,716,695,718,708,742,739,8631,15.022592932967195,4.999948851394272,10.00000000346154,19.999999901150673,8631,-4.5830163898834474e-08,1.0486930887790251e-07,-2.088409836176197e-07,1.1781018116607811e-07,0,,,,,17084,17084,1,1,10fb885a96964f2e8bd2b999aae630737767628593af55893ce76b666480277d,41.22836639999878,368.9899813999655
10,0.2858680186248501,0.38671524265827917,0.9028979280722218,0.7741564822591128,0.645725964860226,8544,0.5001170686022008,0,0.0,8540,0.4998829313977991,4273,4267,2183,686,662,699,675,731,726,760,692,726,8540,15.003512835081114,4.999998662068528,10.000000001407914,19.999999905485794,8540,-4.548094569143048e-08,1.0466919923350499e-07,-2.1294543017802425e-07,1.2544716199158756e-07,0,,,,,17084,17084,1,1,c43fa8848e27a9dad9600a8851c9d51e9dcfa0822f675e9318c3128612db87e3,40.254359400016256,409.400351600023
11,0.2822255044652215,0.35857794883088984,0.9090954912382742,0.7842504136850514,0.6541534818012207,8478,0.49625380472957153,0,0.0,8606,0.5037461952704285,4327,4279,2156,755,727,699,724,702,693,716,714,720,8606,15.027887474258751,4.999922124050697,10.00000000094474,19.999999912517453,8606,-4.607589865470376e-08,1.047796685301201e-07,-2.138019468134189e-07,1.0925746707357575e-07,0,,,,,17084,17084,1,1,88a93b5ea0353976849c43c2a4ba4065642222ecd9d1b6e666b96292fc431050,40.40674120001495,449.9312146999873
12,0.2793193226974537,0.35044009526644704,0.9104969766594607,0.7877982071220908,0.6624340195654239,8523,0.49888784827909155,0,0.0,8561,0.5011121517209085,4224,4337,2164,713,712,673,743,665,752,731,695,713,8561,14.93400299280852,4.99956431708047,10.00000000162101,19.999999909253432,8561,-4.421986405842052e-08,1.0483898524809178e-07,-2.122175501995116e-07,1.2287298289948012e-07,0,,,,,17084,17084,1,1,9a2566e82306804b6e2ffe90b184ce2e448f968914d1fea2eaf4e4c564dac89a,40.321172699914314,490.4066872999538
13,0.27754009064453544,0.35892117840046095,0.909132118728364,0.7863372325746424,0.6475394817206196,8496,0.49730742214937956,0,0.0,8588,0.5026925778506205,4294,4294,2143,712,720,752,741,745,677,676,707,715,8588,14.999999954491086,4.999999896201757,10.00000000242606,19.999999904928107,8588,-4.550891272271711e-08,1.0460791042969878e-07,-2.1737357513984534e-07,1.1444396719184624e-07,0,,,,,17084,17084,1,1,92692ad88ef42c9e5f3a2c7913adec10ff5438cb0395745bd6c625bc60786d80,40.4165194000816,530.9854186000302
14,0.27415052517547284,0.3350841888510392,0.91260201422099,0.7921892134722687,0.6807093378609221,8555,0.5007609459143058,0,0.0,8529,0.4992390540856942,4369,4160,2115,713,696,714,707,743,723,713,683,722,8529,15.12252310823484,4.998498478398178,10.000000000182297,19.999999907440746,8529,-4.8055461640244836e-08,1.0459902016101778e-07,-2.0443907544631656e-07,1.1078128814290267e-07,0,,,,,17084,17084,1,1,105d3d5f15549c0cd36e10ae45564914a52819ec203428c987ac248251dbc7f5,40.312504400033504,571.4421815000242
15,0.2694590640442066,0.31257641904285216,0.9152328175745101,0.7957164696862941,0.7107043435609572,8594,0.5030437836572231,0,0.0,8490,0.49695621634277687,4287,4203,2068,720,747,709,676,696,716,749,676,733,8490,15.049469918008095,4.999755162536437,10.00000000550751,19.999999904879463,8490,-4.665621791907538e-08,1.0452743633566349e-07,-2.0229301611607298e-07,1.1173772307415675e-07,0,,,,,17084,17084,1,1,ddc24e28ad6aa32902fbbfd441e2478c7e93ced1ab24d38ba5813ebadee6b93e,40.32201909995638,611.9305584999966
16,0.2697410353471847,0.3450475289292793,0.9128042373457145,0.7914977603307941,0.6744011773391827,8466,0.4955513931163662,0,0.0,8618,0.5044486068836338,4365,4253,2137,686,726,744,750,702,735,750,673,715,8618,15.0649802270528,4.999577634480681,9.999999996460012,19.99999990454866,8618,-4.679263749625818e-08,1.0487109861272207e-07,-2.0524663923993103e-07,1.1203624517008848e-07,0,,,,,17084,17084,1,1,9be9542dce39f234d820137f04ca88f7f0b4916612013e203fdd74523e3f65f9,40.542450400069356,652.6298819000367
17,0.2639625396948457,0.3077302484287909,0.916306286360785,0.7979730554420521,0.720145898062019,8565,0.5013462889253102,0,0.0,8519,0.49865371107468975,4186,4333,2186,698,672,677,700,743,751,698,711,683,8519,14.91372222397917,4.999255456124974,10.000000001163212,19.999999916542915,8519,-4.389264700152252e-08,1.04545712043375e-07,-2.0539928868856805e-07,1.1672650757077463e-07,0,,,,,17084,17084,1,1,cf554178a4615bbb57c6eefb7f59daa3184384bad36a2f1fd667aa755d3fc4ba,40.56577390001621,693.3317673000274
18,0.2631291370429805,0.3112278690931404,0.9171820854097987,0.7984194980507892,0.7058878824416137,8511,0.4981854366658862,0,0.0,8573,0.5018145633341138,4320,4253,2071,732,693,723,760,768,733,704,704,685,8573,15.039076123348872,4.999847199204626,9.999999997510995,19.999999900810288,8573,-4.602007659814478e-08,1.0455169036086596e-07,-2.0388668886539563e-07,1.1184144810272301e-07,0,,,,,17084,17084,1,1,ac4ebf86deb53cbd4adf2c35d414c5ab2849f307ac6c63e658323171fce69778,40.203243599971756,733.7015636999859
19,0.2582905570298496,0.30704051994988546,0.9167072165347856,0.8000752879560865,0.7255576403687355,8648,0.5062046359166471,0,0.0,8436,0.49379536408335284,4200,4236,2127,737,703,721,687,675,682,708,650,746,8436,14.978662828090023,4.999954368691381,10.000000002561972,19.99999990585959,8436,-4.5309693923569744e-08,1.0460230262490954e-07,-2.0884111151531215e-07,1.1654570641894679e-07,0,,,,,17084,17084,1,1,c1e923e91119c96023f2b69364f32fe61fb4b3e80c616ee0efebf311aa364560,40.03224830003455,773.8797870000126
20,0.2569605268169918,0.3059434710211101,0.9181238880217938,0.8029030682272882,0.7164199209091313,8479,0.49631233903067196,0,0.0,8605,0.503687660969328,4262,4343,2135,726,699,705,728,689,697,735,704,787,8605,14.952934295985235,4.9997783735716155,9.999999996272713,19.999999909371557,8605,-4.4514474736916106e-08,1.0466641167267675e-07,-2.0545817847050785e-07,1.186283409282396e-07,0,,,,,17084,17084,1,1,ee31aee25f2b1c26c1c38f354cde4d50069246c94fcab21a905f4df51b031fb6,40.776811499963515,814.7988925999962
21,0.25955044789214904,0.33360430212189746,0.9166805546871579,0.8004291768588594,0.6896152601116462,8555,0.5007609459143058,0,0.0,8529,0.4992390540856942,4250,4279,2087,731,700,731,698,702,695,696,739,750,8529,14.982999134254355,4.9999709932411776,9.999999996451589,19.99999991230363,8529,-4.5016369171207e-08,1.0466969462096287e-07,-2.066429090064048e-07,1.1383150777533046e-07,0,,,,,17084,17084,1,1,acf4c49a4cae1768a4890c163868ad8a191fb0a924d12219668a47b9f1dc6476,40.85724600008689,855.8344921000535
22,0.256090559960249,0.3203689009367809,0.9172404738735235,0.8007347856899626,0.694980403957494,8532,0.49941465698899556,0,0.0,8552,0.5005853430110044,4271,4281,2147,749,671,696,727,701,741,666,733,721,8552,14.994153369103383,4.999996477737399,9.999999997299355,19.99999990851351,8552,-4.530260464882062e-08,1.0480948509083834e-07,-2.1132686356395425e-07,1.1803211030780858e-07,0,,,,,17084,17084,1,1,d57decce2fa88526404db66f8a95dff32836224840a9f3648a3500ee7f63811f,41.14675299997907,897.1369976999704
23,0.25380853092369,0.32194847754530004,0.9165121160536491,0.7986768534763412,0.7019814923321618,8667,0.5073167876375556,0,0.0,8417,0.4926832123624444,4242,4175,2029,691,668,723,772,743,667,728,709,687,8417,15.039800357416196,4.999841486393217,10.000000000379705,19.999999906417283,8417,-4.652820308151205e-08,1.0468667646801907e-07,-2.0802655953389149e-07,1.1472780236942981e-07,0,,,,,17084,17084,1,1,7f97f395137fd2168a25f3a8b38ac482541dec9f5fa6e78846172fdba5ad6e86,40.59042500006035,937.8573423000053
24,0.25588784643691587,0.33137086403225474,0.9152328756495821,0.7963976352281231,0.686580948767192,8509,0.4980683680636853,0,0.0,8575,0.5019316319363146,4383,4192,2196,694,696,726,741,675,705,710,731,701,8575,15.111370214473157,4.998759408872093,10.000000004127635,19.99999990689676,8575,-4.7917515236990594e-08,1.0450402279594907e-07,-2.0482573503954882e-07,1.1394261889563495e-07,0,,,,,17084,17084,1,1,ee85b07b6819981e3f591abe13bb24b9540aca52521645a0f2dba87a0f4093a5,40.37459700007457,978.36560010002
25,0.2511843411795737,0.3277577480920985,0.9182365779268572,0.8023351330809243,0.6842797388730311,8506,0.497892765160384,0,0.0,8578,0.5021072348396161,4356,4222,2186,709,735,692,725,706,711,710,720,684,8578,15.078106737865607,4.999389791763352,9.999999998576344,19.999999908445943,8578,-4.6932713891798717e-08,1.0483023680933956e-07,-2.1421870144422428e-07,1.1177454339872384e-07,0,,,,,17084,17084,1,1,89fc5ecdbe365bbd4d89fb8ec7996917b7b55d11c1a66a82d19a87d4ec5a19bb,40.972996000084095,1019.4658207000466
