epoch,train_loss,val_loss,val_macro_auroc,val_macro_ap,val_macro_f1_at_0p5,clean_count,clean_fraction,independent_count,independent_fraction,electrode_count,electrode_fraction,snr_20_count,snr_10_count,combo_RA_LA_LL_count,combo_V1_count,combo_V2_count,combo_V3_count,combo_V4_count,combo_V5_count,combo_V6_count,combo_RA_LA_count,combo_LA_LL_count,combo_RA_LL_count,actual_snr_db_count,actual_snr_db_mean,actual_snr_db_std,actual_snr_db_min,actual_snr_db_max,actual_snr_error_db_count,actual_snr_error_db_mean,actual_snr_error_db_std,actual_snr_error_db_min,actual_snr_error_db_max,rms_match_relative_error_count,rms_match_relative_error_mean,rms_match_relative_error_std,rms_match_relative_error_min,rms_match_relative_error_max,exposure_count,unique_records,exposure_min,exposure_max,order_sha256,epoch_seconds,elapsed_seconds
1,0.3544993200100604,0.34383457735222517,0.8939184792135304,0.754742161638237,0.6428731222541061,8530,0.49929758838679467,4316,0.25263404354952,4238,0.24806836806368532,4282,4272,2120,703,713,711,687,726,718,727,720,729,8554,15.005845172875024,4.999996479323981,9.999999997731463,19.99999991461574,8554,-4.5736150833126024e-08,1.0479471184562934e-07,-2.0657632049392305e-07,1.224694941015514e-07,4316,3.7078167259201383e-09,2.180185222552942e-09,3.4683853793954125e-12,1.2616512960638493e-08,17084,17084,1,1,6f1993399597817707f8a6b450062b2ac9dfbae97e3c26fdbafa3876f3c71b9f,69.19013539992739,69.28191689995583
2,0.298034180378752,0.31726769387777565,0.9043484536556079,0.7745393818444865,0.6556969104519694,8456,0.49496605010536177,4385,0.2566729103254507,4243,0.24836103956918754,4307,4321,2236,734,699,695,755,694,702,684,710,719,8628,14.991886834318779,4.999993313671435,9.999999992416999,19.999999900676283,8628,-4.560704461755914e-08,1.0481574801431347e-07,-2.011076354335728e-07,1.1061179705507129e-07,4385,3.729533954265903e-09,2.1903616403459515e-09,2.0036329072809518e-13,1.1485258786244544e-08,17084,17084,1,1,fbd58fae15581851333b2214e431e4c878b08718e1fb3a217b594860e952daf6,69.22233120002784,138.6818242999725
3,0.2765481202531492,0.3624568542696445,0.9041826078570148,0.7743768486058522,0.6731469812827389,8526,0.49906345118239287,4253,0.248946382580192,4305,0.2519901662374151,4213,4345,2098,752,734,739,709,686,723,669,730,718,8558,14.922879133257682,4.99940509858401,10.00000000247963,19.999999905431885,8558,-4.412021013154242e-08,1.0469671727993075e-07,-1.9630716252549973e-07,1.2322666265163207e-07,4253,3.73946278700757e-09,2.2089447424895134e-09,8.016731113419889e-13,1.1010846662658959e-08,17084,17084,1,1,ad67e97da31c6c6e8d53390b7c91f1e4d7043ce88f71d312e20617a99f4c028d,70.25317839998752,209.11707939999178
4,0.26548749160303275,0.3020708737591106,0.9134208526790797,0.790144472302681,0.6872845166314514,8496,0.49730742214937956,4352,0.254741278389136,4236,0.24795129946148442,4343,4245,2141,666,696,729,719,764,714,679,717,763,8588,15.057056310882082,4.9996743428807475,10.000000001557526,19.999999901972203,8588,-4.682634839442457e-08,1.0450902956190767e-07,-2.0244735310370743e-07,1.1191098181484449e-07,4352,3.745239650636497e-09,2.154154848506675e-09,4.697312464767824e-12,1.1169756135305824e-08,17084,17084,1,1,c142015265109bf3115a5aa0f57e38dc3fab483d906ce00cc06a64cef26d8520,69.8626184000168,279.16766100004315
5,0.25644317261998534,0.30349663105504265,0.9102814848788198,0.7842304327499493,0.6994572335266297,8482,0.49648794193397333,4320,0.2528681807539218,4282,0.2506438773121049,4270,4332,2124,711,775,714,697,742,718,720,694,707,8602,14.963961824301483,4.999870019711857,10.000000003992987,19.999999904494587,8602,-4.5031230004274706e-08,1.0472537102588227e-07,-2.1086860613195313e-07,1.1400866384292385e-07,4320,3.708704706974441e-09,2.155371449070209e-09,4.4847656837604445e-12,1.104572324941256e-08,17084,17084,1,1,dade26ffcc8a2911f46ab1e4d268ba84ddb9b1c58115b0808cdb5dc759a968f2,69.04421960003674,348.3854263999965
6,0.24530391622220457,0.30980865875361463,0.9134317851402637,0.7864321057629585,0.6950433797518543,8506,0.497892765160384,4255,0.24906345118239287,4323,0.25304378365722313,4287,4291,2078,699,735,693,763,728,713,716,744,709,8578,14.997668408834974,4.99999935243303,10.000000002521638,19.999999910890548,8578,-4.535015278091117e-08,1.0473655944533691e-07,-2.0615454587868953e-07,1.170558423524426e-07,4255,3.767320799784011e-09,2.190207369958788e-09,2.468609816750845e-12,1.129585208930252e-08,17084,17084,1,1,467dd47a25244e09706bde8ac41065cc546707cb4f27da0ad6133713ad558b08,68.80089890002273,417.31879020005
7,0.23458093780875067,0.3127609915746669,0.9114950018567857,0.7860462987964388,0.6822859600335139,8539,0.4998243970966987,4246,0.24853664247248888,4299,0.25163896043081246,4324,4221,2143,686,685,706,741,737,702,687,737,721,8545,15.060269116711229,4.999636645576083,10.000000005544528,19.999999905243264,8545,-4.6542136881528064e-08,1.0480243980024932e-07,-2.0269724032573322e-07,1.2295680029694722e-07,4246,3.7232519055353584e-09,2.1856389184142357e-09,2.8220603769779746e-12,1.1205065193650015e-08,17084,17084,1,1,9b1e3ba6fb1ffb38c9d8671f19590bb288d9a441da139fd6b1bf23228f78f504,68.939913899987,486.46287599997595
8,0.227130467566247,0.3241501426930085,0.908992939697631,0.7791079298368305,0.6761617196049724,8747,0.5119995317255912,4122,0.24127838913603372,4215,0.2467220791383751,4222,4115,2051,680,722,698,666,687,710,725,703,695,8337,15.064171717787538,4.999588077543052,10.000000001301974,19.99999990599036,8337,-4.6636115677242826e-08,1.0473053465011771e-07,-2.0431305003398847e-07,1.1718179138142659e-07,4122,3.745121274106907e-09,2.198739393963966e-09,1.9494223494381676e-12,1.1015705210527752e-08,17084,17084,1,1,75468ff6879ce64a6a157dc434c08871dd4de7635c12c2ce1f1b2ad2f4075bd5,68.93618860002607,555.5425920999842
9,0.21831081384407836,0.331486308285819,0.9053026738678668,0.776410365027244,0.6647515583883375,8505,0.4978342308592835,4302,0.2518145633341138,4277,0.2503512058066027,4300,4279,2210,699,711,700,713,711,698,694,718,725,8579,15.012239143164383,4.999984916301742,9.999999997659831,19.99999990588217,8579,-4.555224947386402e-08,1.0467676426735172e-07,-2.0670017164547971e-07,1.259311410706232e-07,4302,3.729288331560504e-09,2.1627926730064614e-09,8.447791516009506e-13,1.1135886759058945e-08,17084,17084,1,1,10fb885a96964f2e8bd2b999aae630737767628593af55893ce76b666480277d,68.92606590001378,624.6217644000426
10,0.20564912491242743,0.32976494072645707,0.9079605955313523,0.7795428045036722,0.7095053872319703,8522,0.49882931397799113,4278,0.2504097401077031,4284,0.2507609459143058,4327,4235,2133,730,774,708,716,724,670,718,693,696,8562,15.05372571837276,4.9997112421998775,10.00000000148363,19.999999900768675,8562,-4.6635416988845116e-08,1.0448528823965108e-07,-2.0654888288618167e-07,1.1039933767165167e-07,4278,3.718182956365679e-09,2.1317800513925737e-09,3.515577114009977e-13,1.0789014191781948e-08,17084,17084,1,1,c43fa8848e27a9dad9600a8851c9d51e9dcfa0822f675e9318c3128612db87e3,69.35087110009044,694.1108627000358
11,0.19946882133251106,0.33990430773582175,0.906952315231457,0.777265609699028,0.7090758007646822,8614,0.504214469679232,4269,0.2498829313977991,4201,0.24590259892296887,4283,4187,2150,677,717,682,677,715,719,689,712,732,8470,15.056670555386654,4.999678729970841,9.999999998006556,19.99999990256239,8470,-4.6738492859358523e-08,1.0475361074754066e-07,-2.0810712797469932e-07,1.2385602765618842e-07,4269,3.688722361797473e-09,2.1776975478596318e-09,2.4023444768875874e-13,1.2732162659267378e-08,17084,17084,1,1,88a93b5ea0353976849c43c2a4ba4065642222ecd9d1b6e666b96292fc431050,68.87404659995809,763.1309140999801
12,0.18467155701450932,0.37815714193523653,0.9033808957424931,0.7730097266073852,0.6949463572120109,8504,0.4977756965581831,4274,0.2501756029033013,4306,0.2520487005385156,4309,4271,2092,726,717,725,789,698,681,770,699,683,8580,15.022144476166622,4.9999508581112115,10.000000004657375,19.99999991136399,8580,-4.5977901966610125e-08,1.0445889873590876e-07,-2.1018872686795476e-07,1.1554776868649697e-07,4274,3.769258640378465e-09,2.178542195946515e-09,2.3933663301359816e-12,1.1307853014805748e-08,17084,17084,1,1,9a2566e82306804b6e2ffe90b184ce2e448f968914d1fea2eaf4e4c564dac89a,68.96690350002609,832.2495424000081
13,0.17552881616880117,0.3697293890433565,0.8998561102214182,0.7679654896146435,0.697844439056494,8509,0.4980683680636853,4293,0.25128775462420977,4282,0.2506438773121049,4273,4302,2166,748,694,690,682,790,742,734,682,647,8575,14.98309033385167,4.9999713025743615,9.999999995344831,19.99999990602704,8575,-4.515707384817919e-08,1.0460799591580764e-07,-2.197924153790609e-07,1.1683224165892625e-07,4293,3.744958987593467e-09,2.200254882289724e-09,9.013413734432817e-13,1.2280345662524835e-08,17084,17084,1,1,92692ad88ef42c9e5f3a2c7913adec10ff5438cb0395745bd6c625bc60786d80,69.02040279994253,901.4121641999809
14,0.16215274392079201,0.37273435096038576,0.9002343477149932,0.7635849607137877,0.6911886716496658,8538,0.4997658627955982,4243,0.24836103956918754,4303,0.25187309763521426,4276,4270,2086,701,743,721,706,771,715,724,719,660,8546,15.003510368674316,4.999998663828325,9.999999984174023,19.999999914364246,8546,-4.555456329457927e-08,1.0469133379207088e-07,-2.0228826258517074e-07,1.2595956633276728e-07,4243,3.6939319742385216e-09,2.1524195039646628e-09,3.4752375397759416e-13,1.092813120634216e-08,17084,17084,1,1,105d3d5f15549c0cd36e10ae45564914a52819ec203428c987ac248251dbc7f5,68.76648220000789,970.3297468000092
15,0.14765771157434243,0.4377320775447998,0.898001500169029,0.7589465731547463,0.6413665894056235,8652,0.5064387731210489,4219,0.24695621634277687,4213,0.2466050105361742,4279,4153,2110,691,726,634,758,689,745,758,667,654,8432,15.074715322855187,4.999441626099277,10.000000001429651,19.999999900060605,8432,-4.716378776920447e-08,1.048713472375256e-07,-2.144087893896085e-07,1.1951278189314962e-07,4219,3.686110512375755e-09,2.1921227568431913e-09,1.942094569076077e-12,1.1800388670610267e-08,17084,17084,1,1,ddc24e28ad6aa32902fbbfd441e2478c7e93ced1ab24d38ba5813ebadee6b93e,69.07773130002897,1039.5478104000213
16,0.13683846014091935,0.45596029679573036,0.8949896253372142,0.7566687048739149,0.673073998843271,8518,0.49859517677358933,4247,0.24859517677358933,4319,0.25280964645282133,4318,4248,2122,698,733,712,746,746,689,692,693,735,8566,15.040859164659626,4.999832945780448,10.000000004402025,19.999999905115487,8566,-4.617389956166224e-08,1.0469790948334804e-07,-2.0919637933047852e-07,1.2497569201741499e-07,4247,3.7408625218790275e-09,2.1865668371702017e-09,8.395879018662044e-14,1.1980460973065143e-08,17084,17084,1,1,9be9542dce39f234d820137f04ca88f7f0b4916612013e203fdd74523e3f65f9,69.70801499998197,1109.453888499993
17,0.1265659837749573,0.4405102575925168,0.8976752652483659,0.7545125656939936,0.6813229986099053,8692,0.5087801451650668,4252,0.24888784827909155,4140,0.24233200655584172,4104,4288,2119,730,692,690,693,677,650,727,683,731,8392,14.890371739368804,4.998797916860374,10.000000005748609,19.99999991040429,8392,-4.3281340576976356e-08,1.0485477718186072e-07,-2.2229895435543767e-07,1.3503984597207364e-07,4252,3.764689473782715e-09,2.163234106499849e-09,5.763979625206924e-13,1.139516828908216e-08,17084,17084,1,1,cf554178a4615bbb57c6eefb7f59daa3184384bad36a2f1fd667aa755d3fc4ba,68.68534129997715,1178.2815238999901
18,0.11755850305115693,0.4927986828612037,0.8934741309312539,0.7466806642497634,0.6563552857139467,8618,0.5044486068836338,4253,0.248946382580192,4213,0.2466050105361742,4233,4233,2133,686,708,742,699,748,660,710,674,706,8466,14.999999954557671,4.9999998958715555,10.000000001915005,19.999999917047326,8466,-4.544233005217404e-08,1.0490769154545679e-07,-2.0005121825761307e-07,1.212363454072829e-07,4253,3.701244064295298e-09,2.187587839759863e-09,1.452499639728004e-12,1.1392250751014759e-08,17084,17084,1,1,ac4ebf86deb53cbd4adf2c35d414c5ab2849f307ac6c63e658323171fce69778,68.64536470000166,1247.083333699964
19,0.1041008691665189,0.6093581524944038,0.878748625075356,0.7316765843343074,0.6232726407136819,8382,0.4906345118239288,4295,0.25140482322641067,4407,0.2579606649496605,4301,4401,2137,778,709,705,760,683,719,758,718,735,8702,14.94254190000064,4.99966974245314,10.000000006364079,19.99999990763737,8702,-4.43799612292963e-08,1.0462793154969933e-07,-2.0613045492723359e-07,1.16984518072627e-07,4295,3.761165919712319e-09,2.204060956724316e-09,3.247073860714596e-13,1.1899288693762996e-08,17084,17084,1,1,c1e923e91119c96023f2b69364f32fe61fb4b3e80c616ee0efebf311aa364560,69.20313159993384,1316.4353995999554
20,0.09772380232266703,0.5003991033135455,0.8880745370476288,0.7402877306498464,0.678089880233442,8510,0.49812690236478574,4217,0.24683914774057597,4357,0.25503394989463823,4348,4226,2128,726,740,750,699,730,679,703,705,714,8574,15.071145276088666,4.999493704622301,10.000000008932917,19.999999901078777,8574,-4.6981078583030467e-08,1.0483202601726159e-07,-2.1364673585821947e-07,1.1518023157464086e-07,4217,3.71946436548519e-09,2.1678994045420704e-09,1.224290919146636e-12,1.1615575990288233e-08,17084,17084,1,1,ee31aee25f2b1c26c1c38f354cde4d50069246c94fcab21a905f4df51b031fb6,68.75699729996268,1385.354418199975
21,0.08677822937070277,0.5434165546967399,0.8882376358665944,0.7456202127651234,0.6665081201029759,8444,0.4942636384921564,4260,0.24935612268789512,4380,0.2563802388199485,4277,4363,2150,761,699,728,728,747,706,687,723,711,8640,14.950231436964163,4.99975219919115,10.00000000539117,19.999999922047603,8640,-4.45173179136821e-08,1.0495589302739766e-07,-2.1060886368218235e-07,1.24755858976755e-07,4260,3.7497694386429274e-09,2.1738621451254073e-09,2.144724833658889e-12,1.2081367103321377e-08,17084,17084,1,1,acf4c49a4cae1768a4890c163868ad8a191fb0a924d12219668a47b9f1dc6476,70.75262599997222,1456.2403648999752
22,0.07926853767109264,0.5774065987706073,0.8869101182290076,0.7348411412602369,0.6772112169782929,8500,0.4975415593537813,4249,0.2487122453757902,4335,0.25374619527042847,4246,4338,2142,679,731,755,731,731,669,672,734,740,8584,14.9464118847142,4.999712719781734,10.00000000117192,19.999999913005375,8584,-4.4456348509480004e-08,1.0460893374004443e-07,-1.977291255172986e-07,1.1743025751798086e-07,4249,3.7568926716712625e-09,2.170858763325795e-09,1.2748903176574574e-13,1.2494525655713923e-08,17084,17084,1,1,d57decce2fa88526404db66f8a95dff32836224840a9f3648a3500ee7f63811f,68.82589859992731,1525.2243427999783
23,0.08040037738812163,0.5401364745987095,0.8883156119344957,0.7430112346104429,0.6775707357226223,8427,0.4932685553734488,4367,0.2556192929056427,4290,0.25111215172090845,4352,4305,2189,733,699,679,756,705,747,736,716,697,8657,15.027145616378641,4.9999262070666575,9.999999989923312,19.999999905660346,8657,-4.609103611495401e-08,1.0448512630118477e-07,-2.083874015568199e-07,1.1558294943370129e-07,4367,3.701376236776047e-09,2.1787726108131175e-09,7.421113191374361e-13,1.2899384742315075e-08,17084,17084,1,1,7f97f395137fd2168a25f3a8b38ac482541dec9f5fa6e78846172fdba5ad6e86,69.35414700000547,1594.7179071999853
24,0.0697825484691278,0.5750569256243034,0.8834357590013996,0.7316040344811621,0.6736713139962813,8485,0.49666354483727465,4227,0.24742449075158043,4372,0.25591196441114494,4250,4349,2092,664,714,695,730,745,755,728,751,725,8599,14.942435122817326,4.999668514020762,10.000000002595753,19.999999912288374,8599,-4.406254321774228e-08,1.0478564464627362e-07,-2.1750410894583183e-07,1.1263759702728748e-07,4227,3.6870841497728204e-09,2.153656512202412e-09,2.1497759320165424e-12,1.0886130150624571e-08,17084,17084,1,1,ee85b07b6819981e3f591abe13bb24b9540aca52521645a0f2dba87a0f4093a5,68.83861940004863,1663.700942000025
25,0.06498788771843414,0.5701320911275929,0.8861264563023944,0.7442409620146027,0.6916099508771061,8564,0.5012877546242098,4264,0.24959025989229688,4256,0.24912198548349332,4275,4245,2126,727,719,697,675,700,740,736,676,724,8520,15.017605587848784,4.999968900280198,9.999999992336846,19.999999901945557,8520,-4.595403352412021e-08,1.0457485512879168e-07,-2.0638669440131707e-07,1.1813091305157286e-07,4264,3.7342421072011035e-09,2.1636144662493534e-09,8.25374211154576e-12,1.3003195882082082e-08,17084,17084,1,1,89fc5ecdbe365bbd4d89fb8ec7996917b7b55d11c1a66a82d19a87d4ec5a19bb,68.75069040001836,1732.6096541000297
