noise_seed,snr,ecg_id,empirical_marginals_exact,variance_max_relative_error,rms_max_relative_error,snr_absolute_difference_db,periodogram_l1_max_lead_relative_error,welch_l1_max_lead_relative_error,welch_l1_all_leads_relative_error,electrode_abs_offdiagonal_correlation,shifted_abs_offdiagonal_correlation,periodic_baseline_band_error_relative_to_total_max,welch_baseline_band_error_relative_to_total_max,periodic_low_band_error_relative_to_total_max,welch_low_band_error_relative_to_total_max,periodic_middle_band_error_relative_to_total_max,welch_middle_band_error_relative_to_total_max,periodic_high_ecg_band_error_relative_to_total_max,welch_high_ecg_band_error_relative_to_total_max,periodic_above_ecg_band_error_relative_to_total_max,welch_above_ecg_band_error_relative_to_total_max
8128,20,9,True,5.987455481634801e-16,2.1536708583794476e-16,0.0,3.380769561866691e-16,0.292401962243495,0.2193986909555691,0.19434483365249502,0.025125199968781976,3.1184663966847902e-18,0.004602700779439463,5.019927412136087e-17,0.02161400122432043,6.449149592248899e-17,0.03408198832347926,1.2898299184497798e-16,0.0678601263661682,6.258442613684526e-19,0.0012175169268612892
8128,20,38,True,9.701266208718553e-16,1.8221543455506023e-16,0.0,3.497150953892046e-16,0.3184303857993198,0.23189419623351318,0.20083219360261625,0.027608739425107363,1.1682078684039756e-18,0.00541641040590845,4.8545790538854e-17,0.033180658488033594,6.528807303215794e-17,0.024685773093482275,2.0621596602238004e-16,0.07584806088634491,9.473892781951717e-19,0.0016277431681617105
8128,20,40,True,7.201167922952381e-16,0.0,0.0,3.6524613366609535e-16,0.3283446898365486,0.2465674922448155,0.18876107997334476,0.027333152373612037,1.3092900015525005e-18,0.0013775332908790047,3.886727756611595e-17,0.03570754820513915,8.379456009936003e-17,0.036251874490742915,1.800291980738094e-16,0.0950353971669901,4.895432251004104e-19,0.002035466121221068
8128,20,57,True,6.580477893320914e-16,2.1798610195768495e-16,0.0,3.5616030852833546e-16,0.31414123761207996,0.23504980068047235,0.18465848941096086,0.02570262452412738,1.581961042102894e-18,0.00514127117762618,5.3746258818799536e-17,0.032220471479278874,1.0519297558623185e-16,0.053734960758116346,1.72198134261879e-16,0.04433744861135724,2.2140005120026717e-18,0.003929319661108489
8128,20,59,True,3.533341320639609e-16,1.9308910929819782e-16,0.0,3.565623098947255e-16,0.2989416349527616,0.2317667940168269,0.20349316773037174,0.027770340065564735,4.616454276390511e-19,0.0018391924976643354,2.4377829895849965e-17,0.031166233159575483,6.295532570384403e-17,0.047665711751584544,1.7837021521903705e-16,0.06967384063905176,9.765799448210586e-19,0.0018071506672703748
8128,20,63,True,7.331812063340655e-16,2.036709138729425e-16,0.0,3.543167158540592e-16,0.32906334430860124,0.26904258372727846,0.18957271154390087,0.025437934319900404,1.2995071425616504e-18,0.003240215047361731,6.237634284295922e-17,0.030592420595513696,9.164765079175818e-17,0.04097808674098595,1.6633691424789126e-16,0.06924641835243489,1.5268244042821146e-18,0.0031473277354888986
8128,20,65,True,8.305777095004984e-16,0.0,0.0,3.6806995342539763e-16,0.31483136126229183,0.2326997451817384,0.1915676236238008,0.025872614200221366,5.361353690062837e-19,0.00327323792874394,5.3240991932022863e-17,0.052014462795957436,1.0742842082173738e-16,0.028802048936005777,2.033578153719068e-16,0.03735730328059976,1.3484080787299385e-18,0.0018912333674290388
8128,20,75,True,2.270141604317304e-16,1.924358192376292e-16,0.0,3.730496494284306e-16,0.2831857689345637,0.212960692539554,0.19909587677417237,0.02571043728543177,1.0251037002105224e-18,0.003412106971600987,2.0955647685221573e-17,0.022198493662491162,8.33876250633525e-17,0.04856047761753087,2.6242654725389373e-16,0.06505429279424377,4.433870320932235e-19,0.0008235475995816657
8128,20,76,True,6.651953638590934e-16,2.1228470265384024e-16,0.0,3.368355118125857e-16,0.28441725385060757,0.22624909255714312,0.19511122919033885,0.029456674437274434,8.031406925176893e-19,0.0030139961563413506,3.325976819295465e-17,0.024668296628466646,8.71584481400438e-17,0.02776905868092541,1.743168962800876e-16,0.08492655597024294,1.1998769307258415e-18,0.0021925720191508452
8128,20,79,True,7.533048382988283e-16,1.8904711857119845e-16,0.0,3.5194245283890856e-16,0.3146224628007682,0.23233780568099774,0.19889880442198632,0.030073169025576992,1.9183092345627164e-18,0.00462366024386159,4.643942637202916e-17,0.037929687360878116,8.184786067467591e-17,0.04652138372270953,3.2739144269870363e-16,0.09263000789943585,1.3507944199461166e-18,0.002183609953484805
8128,20,93,True,4.661595025488617e-16,1.9269409064350782e-16,0.0,3.5052449973631057e-16,0.2659639834202881,0.21289527326613694,0.19656393732268376,0.02702161894084698,1.404511038276577e-18,0.004676446806028173,2.0521809704465828e-17,0.02752382922271543,1.1683478295442724e-16,0.06991553718686684,1.6343114581828851e-16,0.06312426280101656,9.798235216952055e-19,0.000993641235915075
8128,20,100,True,1.1301019084386346e-15,2.045046991246087e-16,0.0,3.632641235502613e-16,0.3419417445497352,0.23325220893880413,0.19663655184174308,0.038960037669944055,1.090972380951416e-18,0.004540829222810516,7.23738919459339e-17,0.029581574562791972,9.073589505184821e-17,0.051494431594458975,1.447477838918678e-16,0.09869806373659402,7.401265564035331e-19,0.002472965705709385
8128,20,112,True,9.477978374307427e-16,2.0929007177583043e-16,0.0,3.4331745690518314e-16,0.3007655576512885,0.24739820451229436,0.19440569663219465,0.02689508014044541,3.0072307610635294e-19,0.0013318619274709784,2.6920222417350662e-17,0.03312951501760551,8.827866250337585e-17,0.023654314986644158,2.707993821230691e-16,0.06896969385721939,1.2618854258133122e-18,0.0016786533945368442
8128,20,115,True,8.707813564310422e-16,1.5576280403086888e-16,0.0,3.525810948421899e-16,0.2864953760634999,0.23201295361783833,0.19911534715911716,0.02521514096080186,1.0120280541301838e-18,0.0011521905781662508,4.857734659824882e-17,0.026563878948004084,8.37143923427428e-17,0.04325796620980606,2.2476678788608917e-16,0.0388034958117792,5.669149455931263e-19,0.0023126494477995743
8128,20,116,True,8.453777616137425e-16,1.3504035488267558e-16,0.0,3.4094738419295637e-16,0.29425730239006626,0.24186193703900666,0.1874842078822338,0.025163260362874633,2.8541936327834417e-18,0.002087930188594898,2.4221888318089306e-17,0.02072776223692881,1.6425436189270106e-16,0.030107827058100164,1.6132485822643875e-16,0.061877958569462724,3.784670049701454e-19,0.0014420167946547306
8128,20,117,True,5.416767829565906e-16,2.1271157209493516e-16,0.0,3.5030074300475867e-16,0.30778607016588283,0.2709142967142023,0.20198962662061673,0.02452491063089339,2.3677569309122622e-18,0.0031547022985830174,4.5139731913049193e-17,0.0180350718727757,6.825488799075078e-17,0.04276934390630622,1.418284840911705e-16,0.09639731458090164,2.3231704146153834e-18,0.0015454385070523583
8128,20,119,True,8.598341688823588e-16,2.056460536550711e-16,0.0,3.566727459525213e-16,0.28930447747097754,0.23747504139023665,0.1972513801224019,0.030364368863963095,2.2319364439070916e-18,0.004859072292179142,2.7717599498069766e-17,0.0370457687221771,9.522928827336924e-17,0.039125841458544273,1.9092953996790676e-16,0.07772533553114273,8.587793586658969e-19,0.0009166490227748397
8128,20,121,True,8.873502011340804e-16,2.1709426390963647e-16,0.0,3.35620243690368e-16,0.3351637286668837,0.24953408365579285,0.19734015298171464,0.02596869619174139,1.182171030122506e-18,0.0032224913653836665,4.970800348105626e-17,0.025934754611706877,7.394585009450664e-17,0.02218010488807495,2.640240285146533e-16,0.08591792121565534,7.188928568133595e-19,0.001381072118572588
8128,20,122,True,4.729566624270204e-16,2.1921606735761897e-16,0.0,3.4843931275450785e-16,0.29272744776513765,0.2527216992159603,0.19956346511966272,0.03545980471690404,6.666588175464569e-19,0.002783347620663341,4.0976515476410044e-17,0.03853645470793801,1.701256268603899e-16,0.029589166781318784,1.7270336636531185e-16,0.029412296613892577,6.402580543189069e-19,0.004388556703804479
8128,20,128,True,5.554332694927452e-16,2.0329803985922122e-16,0.0,3.6251633458158984e-16,0.29092695296788085,0.19537832174923161,0.19736608113681545,0.03321401660232126,8.211618076207058e-19,0.0019709247078184477,3.9420346451599334e-17,0.019979496505900526,1.0297988544096536e-16,0.028036888607639775,1.3837027196701293e-16,0.0801227973638859,1.1002539064668469e-18,0.004127403408003891
8128,20,129,True,4.728647060121054e-16,2.1036510393788916e-16,0.0,3.428624275497154e-16,0.31929402815898367,0.25043612426715695,0.19950986019279307,0.029578649448672494,1.385141730652346e-18,0.0034977147676982464,2.990280903134444e-17,0.02987072282162115,7.787823915097978e-17,0.03554168445359409,2.7623968976085655e-16,0.04844109369889263,4.2659198355136965e-19,0.0013920234632379214
8128,20,132,True,1.1097930938178622e-15,2.0928548153679008e-16,0.0,3.695657924601821e-16,0.306882953545135,0.24177613709495557,0.20308248788390265,0.025775353867446546,9.910769752212853e-19,0.003776707698075704,2.948932267989862e-17,0.03525062044903326,5.5489654690893135e-17,0.04561438825655672,2.1861822373789586e-16,0.0677560318612143,8.359675809065596e-19,0.0016862157408930227
8128,20,157,True,7.842545559058593e-16,0.0,3.552713678800501e-15,3.420717134931107e-16,0.31190927132607865,0.26061685687632924,0.18680749392085605,0.029302449241335814,4.853040172750228e-19,0.0022219168846053378,4.901590974411618e-17,0.022552398558286064,9.143254644229035e-17,0.04259779387032138,2.315069896451767e-16,0.0769450322969958,7.849707216615084e-19,0.001677859837906135
8128,20,160,True,3.093422460732289e-16,1.3104176511321868e-16,0.0,3.5053656620081245e-16,0.3052271610862317,0.19934844122038556,0.19138751317805294,0.026552548016235175,3.6251044461706496e-18,0.002859367456677987,3.753063427938964e-17,0.019865608531193964,9.857804588335278e-17,0.026478325295090404,1.3321446572453623e-16,0.07325776830922247,5.203690067364697e-19,0.0009071651218785609
8128,20,162,True,7.649130453036379e-16,2.1194186398701418e-16,0.0,3.5334861186764906e-16,0.31179030003421676,0.24397873601655254,0.2005136901362055,0.03161078227774742,2.4679060275415346e-18,0.0017380125112997327,2.6324330960443035e-17,0.0321756710065861,9.561413066295471e-17,0.032576460387826876,1.4605214097956895e-16,0.06999119117095526,1.6559269170946003e-18,0.001089175220397516
8128,20,167,True,5.566335386004256e-16,1.7837619233033598e-16,0.0,3.424435266897685e-16,0.3171498155295343,0.23331089593453355,0.18721346399087527,0.032872626033200916,1.5903869488792877e-18,0.006228689009469008,3.2427632173934784e-17,0.04556879509154545,6.709635678654536e-17,0.036618612928003384,2.0356952945654882e-16,0.0573100367208789,8.153811600592165e-19,0.0018572917870342887
8128,20,172,True,8.841556841720699e-16,2.1040197834947867e-16,0.0,3.529602685487094e-16,0.3083712448443504,0.21812942228298862,0.18925438898556732,0.029332290465808278,1.15659295380109e-18,0.0024059750575369065,4.965422366077847e-17,0.02411646410680677,7.647063321056249e-17,0.04941118203920638,2.2103892104301738e-16,0.06733078107889133,7.78788351942299e-19,0.0015133963691163477
8128,20,175,True,4.81399601788833e-16,1.989891019762914e-16,0.0,3.4665018065927723e-16,0.27396553354121456,0.21864737448977467,0.1967914374482636,0.030054901047257457,1.1887834364426595e-18,0.0033546199623876874,2.8854348257278184e-17,0.025084920319669083,7.727525568399475e-17,0.04991156718052296,1.6759713815383831e-16,0.05132102624402391,9.825377587217028e-19,0.0022967701131610474
8128,20,180,True,5.280443186082991e-16,1.7878357248740748e-16,0.0,3.4934740721127535e-16,0.3182211503601289,0.24881858004097326,0.19980898181368084,0.03133564651647821,8.434634940668059e-19,0.003290748740201153,2.3345743251991817e-17,0.02935577051221861,6.784455862542183e-17,0.046248319447270224,2.943126192884486e-16,0.05166352132667994,1.1246179920890745e-18,0.001822441247102625
8128,20,201,True,5.50383902731037e-16,2.1540455252942858e-16,0.0,3.367119998794504e-16,0.29220439894083716,0.2421023901911393,0.19396875818202963,0.03142355387978755,6.105852869293617e-19,0.0011487156280919624,2.6621494528550137e-17,0.03296094591135285,5.324298905710027e-17,0.027820489530421082,2.099793644135806e-16,0.052384972938588285,7.870133193240228e-19,0.002649387467815597
8128,20,203,True,7.901846659688317e-16,1.734081441358831e-16,0.0,3.6032434299815655e-16,0.30023484924640836,0.22852696593187732,0.19880090478632753,0.03192665116810189,1.5870113931544625e-18,0.0035826965861064743,2.4902501884843164e-17,0.020922549607497152,7.131670451822388e-17,0.043511492792310535,2.1267836593825293e-16,0.04445083151423065,7.596657120223089e-19,0.0007502356625196315
8128,20,208,True,6.530379965148692e-16,1.9260575030606436e-16,0.0,3.5991713135752244e-16,0.31821014361795164,0.2625119802445353,0.20477751913563258,0.02908500198568498,6.657586329905053e-19,0.004399446670673205,5.681140334852312e-17,0.029432555745486,6.836567777371719e-17,0.030736461267053698,1.2441080590990304e-16,0.08533324267443532,4.0732418057290245e-19,0.0014504861414443146
8128,20,210,True,4.4224253484172216e-16,1.7690851418477445e-16,0.0,3.551430313542391e-16,0.3051123998043481,0.23731530935713688,0.18920097207003855,0.03151054047353768,6.882200045818033e-19,0.0020271345934686834,3.861654407483707e-17,0.012820586032214228,1.0297745086623219e-16,0.05072515255580822,2.2112126742086103e-16,0.044477321301463105,1.0999542029948327e-18,0.0022525568709507605
8128,20,218,True,2.9855793753427117e-16,1.8321239892385815e-16,0.0,3.6687972983540586e-16,0.27963227808396396,0.23879487987914924,0.18955276314632488,0.02542904181281365,1.2044690812266456e-18,0.0022945789883789297,3.083440847940213e-17,0.014824259845572806,1.3157628809786404e-16,0.027489583064736266,1.5741801149986678e-16,0.05009003372121161,1.0204038968356631e-18,0.0021058905756662833
8128,20,240,True,4.01107816198718e-16,1.7004528664429416e-16,0.0,3.400091978283394e-16,0.31039957744651686,0.2552157714446278,0.2032932131063031,0.023151204242826396,4.8260420383078065e-19,0.0016827805679511577,2.5813537512587886e-17,0.018708887000658102,1.0325415005035154e-16,0.03045252483174167,2.0650830010070309e-16,0.0433908974173076,7.630276315912241e-19,0.003072147396400236
8128,20,241,True,9.325785645095115e-16,1.8976153395284784e-16,0.0,3.517242423301289e-16,0.30566178707238106,0.24256297931234058,0.20469577638934225,0.02907722601184697,2.4657319548509036e-18,0.0018291303236241127,2.0271512440200722e-17,0.019864940866836992,5.699832120580521e-17,0.029009427125720424,2.346655568081138e-16,0.08560000389527121,2.5568337778497657e-18,0.003375348115621832
8128,20,243,True,6.507256634026716e-16,1.8495359232311554e-16,0.0,3.6293234344071588e-16,0.3566558464660862,0.2570162659673606,0.2016237885986822,0.029531698290078658,9.404356038855834e-19,0.0030916126949959164,1.925729704442424e-17,0.025472023927074382,8.133736760715705e-17,0.0366961104045318,2.169085544675572e-16,0.11220434926875586,6.704206268487913e-19,0.0027273400196347187
8128,20,245,True,7.970927155890306e-16,2.1381743583049897e-16,3.552713678800501e-15,3.5679045554327736e-16,0.3022331832715909,0.22224742763694236,0.1957684853832386,0.03335115549845701,2.7639652707324024e-19,0.0017416946768386923,5.978195366917726e-17,0.034934856580392346,7.9709271558903e-17,0.024674861107355,2.0589509878236045e-16,0.07004786133853674,5.390420497308372e-19,0.0018497793687103532
8128,20,252,True,4.518890962817632e-16,1.575939222320608e-16,0.0,3.42269012978365e-16,0.2866781110857214,0.22955487490627147,0.1961910383679479,0.026590063639808446,6.560899588267228e-19,0.0018755251715754288,2.799317157660684e-17,0.018008576754720475,5.592534962259072e-17,0.04511676784894965,2.259445481408816e-16,0.06235319015526865,4.1001161099183834e-19,0.001637789238313467
8128,20,271,True,6.507316695377915e-16,1.1168093135177487e-16,0.0,3.51410452224718e-16,0.3372056443943969,0.24524814780677673,0.19022818959856827,0.029749445835937468,9.183304097635154e-19,0.005126619045000546,2.8085866873034284e-17,0.026817152642315142,7.607019114992644e-17,0.03523946653620727,1.6633526259216299e-16,0.10867979524654402,2.118267153443332e-18,0.003092332832244986
8128,20,274,True,7.100639601582072e-16,1.5693171376091266e-16,0.0,3.5329296467506635e-16,0.3009512464557763,0.22635327029513777,0.1977134008915834,0.03132097528433371,1.3343596644071612e-18,0.0036201277336977617,2.7350590394146686e-17,0.0397408997393296,1.1206615653935462e-16,0.04464691713466633,2.986626985577646e-16,0.059611116682345915,2.2059356792459683e-19,0.001715022638116731
8128,20,299,True,5.495472116569623e-16,1.5019072753721303e-16,0.0,3.4602110693634197e-16,0.3215480506351469,0.25988617939435127,0.1970298678459723,0.02863380797691072,1.1411134700488552e-18,0.0015034898621566685,4.5795600971413497e-17,0.027356848006038756,1.6251228405743833e-16,0.041387482658793044,1.1041860456977652e-16,0.09707481059421723,5.391533426258619e-19,0.0021515129336760253
8128,20,318,True,1.0407923855095896e-15,1.9246751356553662e-16,3.552713678800501e-15,3.5926735158663126e-16,0.3010877287597374,0.2595681075338481,0.1977314562327461,0.028636245137176372,1.2196785767690508e-18,0.0022942517359567315,6.14816688644975e-17,0.03285336028977005,5.375703011269241e-17,0.052851089161972134,2.1033381662099994e-16,0.0770852146966535,1.2464376171328234e-18,0.0014007831641892642
8128,20,334,True,6.189103528014101e-16,0.0,0.0,3.5081433429062845e-16,0.30566192208748705,0.21671526403344665,0.19782059179887576,0.03135621357954377,6.563509002997739e-19,0.0025389835976904382,2.1824348526764233e-17,0.026940822461602613,9.503443303603693e-17,0.05045208229381872,2.851032991081108e-16,0.06370475351538292,1.1136847621410578e-18,0.0015496178908988632
8128,20,336,True,3.4174602484913706e-16,1.3189936285599017e-16,0.0,3.756011526852494e-16,0.31033326865000993,0.2565437033898044,0.196331845539589,0.034065886365490364,7.029296653566238e-19,0.0025692593176626865,3.9175556478145546e-17,0.022908372067994745,9.594970171329906e-17,0.036282695163420725,3.3965090334524897e-16,0.09328725689470611,5.356033112246461e-19,0.0018083012184708818
8128,20,347,True,6.610223460629898e-16,1.261420623953854e-16,0.0,3.3872990311210385e-16,0.2755028336367486,0.24976732994514886,0.19869102137692626,0.024738540239224255,4.0989571359268273e-19,0.0015594290252808327,2.754259775262458e-17,0.01888138081437958,9.473023789475091e-17,0.04847762571423026,2.209001024440477e-16,0.0849575054495322,1.480159967105483e-18,0.002480646219175407
8128,20,361,True,9.312578855727677e-16,2.1133766268696652e-16,0.0,3.3179977510003666e-16,0.3195693793558928,0.23267163520062176,0.19935559226231758,0.026242284400866848,1.8438080403816666e-18,0.00307004017070116,3.1252630083355613e-17,0.021288690613388447,4.867699158789694e-17,0.03969929039375785,1.7222823238411334e-16,0.05830833546563411,9.748784089287062e-19,0.0015692162102176551
8128,20,364,True,8.612452632210324e-16,2.1865204333339113e-16,0.0,3.5550136869400395e-16,0.3234531878665521,0.21550052578690063,0.2038877962034067,0.030881327936640297,1.038615568983761e-18,0.001905348623288467,4.0370871713485864e-17,0.036717452683132354,1.0910273668216345e-16,0.04354355808705601,2.707776206259198e-16,0.10123362033359219,5.2566239210268055e-19,0.002041433861784679
8128,20,377,True,8.497493582687378e-16,1.7333856960815852e-16,0.0,3.6912814488337434e-16,0.30222465142411753,0.24573617285678556,0.20091813736597333,0.025849516068803046,1.044384347395462e-18,0.0027961792905598203,2.1243733956718434e-17,0.021594466713924426,1.1980780366215082e-16,0.0443620165950242,1.6230078527123055e-16,0.08292231251250938,9.696762729560355e-19,0.0015359259085540266
8128,20,378,True,1.0130433124090672e-15,1.8846611152430495e-16,0.0,3.497375065450844e-16,0.32031322645402227,0.18459063525285674,0.19804026596974983,0.024828699358765825,4.939716780839614e-19,0.00211012522240427,6.192434705227135e-17,0.0500297452263228,7.637576616312385e-17,0.030860283007234268,1.6884055206817778e-16,0.033105882070136546,2.8558739596442474e-19,0.0005417528075426225
8128,20,388,True,9.654702952431672e-16,1.6928850075474288e-16,0.0,3.552198419994241e-16,0.3020995892197721,0.235178679614894,0.198494618189925,0.024585437342226166,1.8856841703968117e-18,0.0008557557162094046,4.840006667376226e-17,0.02531152432856021,6.06798310128347e-17,0.03201189506828566,2.6625066393342724e-16,0.09201586436594707,1.7754794026950315e-18,0.0017129285382250742
8128,20,397,True,8.576761637138053e-16,1.649425722250229e-16,0.0,3.622108167124874e-16,0.299624866434366,0.23370065381254815,0.18853933004690965,0.03089841187825154,1.4365145727196907e-18,0.0014223718177798442,4.216159209263764e-17,0.014903438965479347,9.915171456142291e-17,0.03526771917647988,2.481169093967519e-16,0.0662892833181807,6.504755776308963e-19,0.0009854728900461581
8128,20,400,True,7.339581099642956e-16,1.633945248640649e-16,0.0,3.5394006744454113e-16,0.28504395004448685,0.24074745592822974,0.1963833452009063,0.02573981071974838,1.7918899169050183e-18,0.003104514007306483,4.62500237551812e-17,0.0350900329388879,6.060442802721012e-17,0.04114471541959885,1.8348952749107385e-16,0.03915503270235414,1.8054438773042022e-18,0.001855309409341047
8128,20,405,True,5.650547257427287e-16,1.418737320045351e-16,3.552713678800501e-15,3.4239281202882676e-16,0.29041046097104645,0.21086686499149548,0.1904000630188576,0.025989129230624214,1.4714966816216893e-18,0.005598135303634239,2.354394690594703e-17,0.034650869371803,1.0636317496784202e-16,0.03723667069074741,3.003807369530379e-16,0.04466312607623443,1.4659846658395324e-18,0.0036268543422763783
8128,20,417,True,1.085065223070478e-15,0.0,0.0,3.5616977331129623e-16,0.3073009811454658,0.22720968875669226,0.20287211232147342,0.03690668216751548,1.6686479225780596e-18,0.0026589426130163765,4.8522512221338e-17,0.020900935217139153,7.119564469666388e-17,0.04676662773593516,1.3182010885819323e-16,0.04769056407760728,9.300951665085801e-19,0.0010119504820220774
8128,20,427,True,1.0464942619351184e-15,1.980890382740675e-16,0.0,3.35619118207741e-16,0.3149112102215652,0.2552525980043668,0.20196060869383387,0.027252809192122418,3.0035548841906492e-18,0.002007581335354668,3.096658107928236e-17,0.037587861076288955,9.289974323784708e-17,0.026931690161088356,2.427848167135366e-16,0.07471707694288951,5.961474473914242e-19,0.003266878221821067
8128,20,430,True,7.959988943316396e-16,1.6150559135516385e-16,0.0,3.4691417496865056e-16,0.3090321943493128,0.2571823488147699,0.19974509121103529,0.030216429641693777,6.105526398771028e-19,0.002604596228326555,3.575116524019656e-17,0.030035923976664016,6.790832364387855e-17,0.05695772353302169,1.358166472877571e-16,0.06047165946071457,1.3766266998921883e-18,0.001699145494926173
8128,20,440,True,4.2931044010958297e-16,1.9613512131775828e-16,0.0,3.4433379718413307e-16,0.3078548048936814,0.22975025386984643,0.20049374211815185,0.03416043556479048,1.6789077207348058e-18,0.0029160538233581994,4.044406704829922e-17,0.018517588616222786,5.4302739103045135e-17,0.0360082502407088,3.258164346182708e-16,0.07609077860749337,8.425847301729005e-19,0.0018660028974075587
8128,20,448,True,5.408686015154987e-16,1.5907544561036118e-16,0.0,3.4806646016409643e-16,0.3141954048143337,0.22884259462402545,0.19673010123123347,0.026846355550609022,6.549357984813834e-19,0.0026561037907116675,2.253619172981244e-17,0.051367141905071315,9.839021865375595e-17,0.03570684734856322,1.2442574493237752e-16,0.11285810003686435,3.1918001640637464e-18,0.001873893427118063
8128,20,452,True,7.056770889519623e-16,2.172598858565348e-16,0.0,3.4785300843952325e-16,0.3054018115569921,0.25008790146847953,0.19239435646177067,0.025234043157610294,8.269653386155804e-19,0.0017598484147922236,3.346392217219952e-17,0.0446134715539634,5.14405823928865e-17,0.03969611881667984,2.05762329571546e-16,0.058696398362265846,3.961840968286051e-19,0.0016892710070508846
8128,20,472,True,1.0792727855636182e-15,1.9980655042692954e-16,0.0,3.5160975293189514e-16,0.3025686324713015,0.23572626132635863,0.19950648091177156,0.027437910237559884,1.2257054483185801e-18,0.0013580360185744382,3.8542932313900633e-17,0.03161930516693484,9.02850035762457e-17,0.03495109732079213,2.357702611533445e-16,0.0642500751791715,1.873737474936836e-18,0.0005002418639498181
8128,20,473,True,9.063417827273175e-16,0.0,0.0,3.468040463717702e-16,0.3145873041268951,0.24880053912897368,0.20326026774093817,0.028073449113982827,5.752058830132677e-19,0.0023317823355560306,2.581200986450419e-17,0.04037383138152328,9.816847070093103e-17,0.03974830346841067,1.9633694140186207e-16,0.07261194433263723,6.714676844393606e-19,0.0027697161893782693
8128,20,478,True,5.183628662148222e-16,1.8230863439450628e-16,0.0,3.412817271628208e-16,0.28373050882098577,0.23391069095925734,0.20488466799456773,0.034542725070966264,7.448132887327524e-19,0.0024787398585958183,3.717192886870092e-17,0.019471455445007755,6.479535827685275e-17,0.07020272053189461,1.9822233727670845e-16,0.04475631112344027,2.6422492843298256e-19,0.0013120537341647332
8128,20,499,True,6.257671435924808e-16,2.012223728519184e-16,0.0,3.525748004326404e-16,0.3076486230995397,0.2498447186710295,0.20572234068941517,0.024767333210273867,4.713081317210808e-19,0.0027910299093239863,3.227275017304034e-17,0.026897880211381873,9.681825051912102e-17,0.0525675792919971,2.303941346083391e-16,0.09483379388049279,3.599908353255299e-18,0.002012371832816079
8128,20,504,True,5.060607003884938e-16,2.059101568740676e-16,0.0,3.603174594015652e-16,0.320695787551496,0.2460932962846085,0.1978344546796863,0.03178601703454616,6.323262872736339e-19,0.0024514945060059353,3.5968755821951393e-17,0.01849779325967417,6.325758754856172e-17,0.0606229786717447,2.5900084726728047e-16,0.059721410179130276,1.1615327349995562e-18,0.0008220687293132549
8128,20,512,True,3.9558241817042307e-16,1.3835109037827026e-16,0.0,3.6796631540073687e-16,0.3078886082642871,0.26229526859265434,0.19539758853005754,0.02831464684426588,4.2091557370358835e-19,0.004535564656144906,3.168392576811619e-17,0.04071257737627711,8.276625300745952e-17,0.04226871723159331,1.2673570307246477e-16,0.10761301554422248,1.4357327932171981e-18,0.00077751641333429
8128,20,514,True,1.2019133255456238e-15,1.4208701396152677e-16,0.0,3.739766836788599e-16,0.2832524154057789,0.2188498834366569,0.19016148475686045,0.029869497545845974,1.4549719645405719e-18,0.0033626516028131335,3.0684073544896134e-17,0.013880304657098217,9.53954706163809e-17,0.04078643080455895,2.4911407781585885e-16,0.03714221705447918,5.327455651270475e-19,0.0015174591448300731
8128,20,516,True,4.4241864571015433e-16,1.8915621779325008e-16,0.0,3.5476421324642127e-16,0.30361501461895185,0.2314454509925973,0.19686936160747892,0.029589748859174758,7.775086810399897e-19,0.0019163677185286198,3.380411493713363e-17,0.02960782313700613,8.499445495961762e-17,0.04572649377544229,2.4170869683094426e-16,0.04035368136038434,1.2925878904889252e-18,0.0010602399282628012
8128,20,526,True,8.171518004116808e-16,1.918270781307528e-16,0.0,3.834135685376565e-16,0.32191873159081147,0.23375361330497033,0.2011314723359322,0.030260877603273603,8.847625207800951e-19,0.004491500787478598,2.4267074094214043e-17,0.020667478634348726,8.423941545800127e-17,0.0583535305436218,2.4858267497608785e-16,0.06164165833586942,8.512867684681744e-19,0.0011270503233954158
8128,20,527,True,6.6809537263124515e-16,1.9471443472762637e-16,0.0,3.463194882361855e-16,0.29253145183347645,0.23148491227168777,0.20548071919881375,0.02850667586675216,9.954312052050592e-19,0.0023034903113458424,3.5777217787237704e-17,0.022942829114246624,6.680953726312451e-17,0.03092980894283767,1.8324931454191677e-16,0.05403516359535245,5.6672492919932e-19,0.000975012716938094
8128,20,534,True,1.0474108398345008e-15,1.37566315904973e-16,0.0,3.371711855059797e-16,0.28871681085620415,0.22078685339652548,0.19998709680150575,0.026446192855148907,6.651360571938818e-19,0.002489559178449084,4.0414202418514306e-17,0.016666396728221407,1.1351655376108916e-16,0.04663637368331459,1.2093543348533104e-16,0.06648390364445182,1.2063085906436037e-18,0.0016353489995527234
8128,20,559,True,1.0455965295525294e-15,2.1616611889516966e-16,0.0,3.527998069325443e-16,0.3239708469727009,0.26340402718734524,0.19694553441154766,0.022617492784853827,1.5643981965358471e-18,0.0027447558940477007,2.6712173068440868e-17,0.042078028031419384,8.846003154586871e-17,0.028005709201027386,2.1369738454752694e-16,0.07297492064298465,1.5396032938108936e-18,0.0024650837060979348
8128,20,564,True,8.608987578009351e-16,1.2278268159650016e-16,0.0,3.493391270359238e-16,0.3171319925608146,0.24102965617965982,0.19586300982619997,0.027705623280309365,1.0608501178961802e-18,0.005715476625547992,2.1185497249438344e-17,0.027895497525795915,7.499395744980208e-17,0.03009510771840839,2.389365395866916e-16,0.07478018103881545,9.33345857760514e-19,0.0012879891275460274
8128,20,569,True,6.824947035365356e-16,1.414944783289436e-16,0.0,3.6361552945099373e-16,0.27421199700621574,0.24182294809632127,0.20540970064824338,0.022833511463093637,1.4673379999826466e-18,0.003983658931443488,3.7200203695810876e-17,0.014992108310992937,9.454877220826336e-17,0.027605429958375446,9.390963199888938e-17,0.08252795411789246,3.1190954468417425e-18,0.0027368327225463533
8128,20,570,True,4.3701408157958976e-16,1.5915089576096232e-16,0.0,3.4574361526064666e-16,0.32940624015358316,0.24215673194556667,0.20164952174780892,0.03359161839361635,6.28829412711957e-19,0.0027175330439608734,3.612760117564248e-17,0.015418649845224104,1.1407170928592701e-16,0.06473882704442885,2.2814341857185403e-16,0.07739743110935762,2.276115008227029e-18,0.002721264853340617
8128,20,573,True,5.61214701529589e-16,1.3960271580459848e-16,0.0,3.378723560923741e-16,0.3275819763402079,0.25164841664345644,0.20901729973546848,0.03061650354732943,1.6189379673106992e-18,0.005581294617919958,4.14448119631539e-17,0.026948373682077642,8.77702850136778e-17,0.0388741910860795,1.6871115263275286e-16,0.06014004348727914,6.857053516693579e-19,0.0014288410110208103
8128,20,581,True,4.3759795250358175e-16,2.0259823387856954e-16,0.0,3.6274193672401276e-16,0.298106075186725,0.24158021276333336,0.20381888411761898,0.034264075234393405,5.656882103901487e-19,0.002751729910345237,4.2693586785758124e-17,0.02417250507548588,8.538717357151625e-17,0.040495177553309766,1.9168121274507085e-16,0.05359830130503908,1.9799009900500924e-18,0.0014485938915818123
8128,20,582,True,4.934752762365176e-16,1.6730155263312104e-16,0.0,3.4898225997095083e-16,0.3057211391256465,0.23957309383777142,0.20120267196629488,0.028083796003800853,1.5165364454924367e-18,0.0015272131431470861,2.954323743348489e-17,0.023276761795240557,6.168440952956472e-17,0.06947640598848655,1.282252924074639e-16,0.0888998572429984,1.0110242969949578e-18,0.0010405124289887503
8128,20,584,True,4.071194212939781e-16,1.7399826878623259e-16,0.0,3.543118591846651e-16,0.32030735426862184,0.22358688229514884,0.1989982317527417,0.026234788074935653,1.912319608826486e-18,0.0017900740830431177,3.392661844116483e-17,0.029233063555792006,1.022612018117752e-16,0.03080631499500956,1.4617572117172288e-16,0.06310651663077854,2.1315577660555274e-18,0.0028900545205737195
8128,20,598,True,4.337112794862604e-16,2.1943478496475498e-16,3.552713678800501e-15,3.5675320902435275e-16,0.29640086040341596,0.20807429964437885,0.19833224452099385,0.02317182918457726,1.2448988630623412e-18,0.0014172383711680689,3.983676361799492e-17,0.05344644587879503,5.3115684823993226e-17,0.055234934560695434,2.820682012445705e-16,0.05722038333180607,8.016734232076999e-19,0.000774685922360285
8128,20,611,True,8.605273292536344e-16,0.0,0.0,3.3157509148170817e-16,0.3369960679767258,0.2333411449257569,0.20276559693960677,0.026582083240646603,7.231192066488882e-19,0.0008133330525341751,3.890316818036137e-17,0.03434766738542934,7.161573731911863e-17,0.02621824601981346,2.540891579256168e-16,0.0929882170944368,1.7543730020294458e-18,0.002709876030564149
8128,20,618,True,1.0622473393105596e-15,1.8904627348557966e-16,0.0,3.4418688363138845e-16,0.32424357977726626,0.26748208204178364,0.19881132108136843,0.028432732019776735,1.2448211007545611e-18,0.0021991350366673446,4.682754703034914e-17,0.04130176889037274,1.0334755629649716e-16,0.04880324743208345,1.8553806866215497e-16,0.08041081574451978,9.551853254823533e-19,0.0029809531936280313
8128,20,619,True,7.968636367570752e-16,1.55230917727437e-16,0.0,3.550768166994508e-16,0.3032959554489479,0.2511772391342259,0.19297645839319924,0.02606961184921148,1.6152703960742537e-18,0.0042021446321106,2.798128331760098e-17,0.04963980688875304,5.426080455014439e-17,0.04303935939929514,1.5037919674832192e-16,0.047078622621911544,1.4259913754506516e-18,0.0018781769651787376
8128,20,658,True,3.91074580461448e-16,2.0204857102689e-16,0.0,3.5225472172615007e-16,0.29887202315167316,0.2685562792139197,0.20029648021575577,0.030648555256226756,9.514621831796401e-19,0.003938738503277707,4.226475989922204e-17,0.028594354791983776,9.134036958524545e-17,0.04635737523839136,2.4357431889398787e-16,0.08111339940550022,7.1817680695759445e-19,0.001994357163727792
8128,20,685,True,6.420351487551102e-16,0.0,0.0,3.512331454310906e-16,0.2929282464194231,0.18579212813120924,0.20743900997608836,0.026091743485645594,5.482234567017747e-19,0.002000646643149622,5.032110881374324e-17,0.024046509393017612,9.929917375676626e-17,0.03387469854426975,2.5069028238280144e-16,0.05733636897024882,1.0854667467695703e-18,0.0031284965466601596
8128,20,687,True,5.545266397743506e-16,1.9882125936893952e-16,0.0,3.3880921161410987e-16,0.3382739680318592,0.2656399344589531,0.20340386558655293,0.029899704872557397,1.2881039375315387e-18,0.0031195048394344524,3.3380027284155535e-17,0.03137262264929771,8.447705592069985e-17,0.056430082641420826,2.2032056559841915e-16,0.10468514823176665,1.255735688115129e-18,0.0022764569914170696
8128,20,688,True,2.5511104127137757e-16,0.0,0.0,3.3628942801403635e-16,0.2915417223076262,0.22591613277934855,0.19436594056673934,0.025714182739415725,9.96527504966318e-19,0.0012653759302434483,3.188888015892218e-17,0.03223238740442383,9.903148335067592e-17,0.03762411229576347,2.1455809112445121e-16,0.054879369146538556,4.000189968199178e-19,0.0009383613291607929
8128,20,694,True,8.775006899906874e-16,1.811249038842587e-16,0.0,3.617272832370412e-16,0.3203975737597353,0.22719982995882998,0.19649319765482898,0.02709282674508978,1.2439270120223637e-18,0.002007548987283772,4.0538506537766147e-17,0.024488827032199394,5.657384245077627e-17,0.05997480397621903,2.423186125272021e-16,0.04152050924722271,3.4989883542846457e-19,0.0025954041544766623
8128,20,696,True,9.63500268340728e-16,0.0,0.0,3.7354689144369843e-16,0.30568517246108823,0.27774050312153825,0.20223795069504313,0.034191646838346634,4.7426103144411675e-19,0.0018078014134320342,3.10576161012526e-17,0.04224463692942198,5.047838039647118e-17,0.044458630829635866,1.9800690977139304e-16,0.044009059213271744,8.782158688885486e-19,0.00209106848316624
8128,20,707,True,7.17305725911009e-16,1.5391493322179259e-16,0.0,3.4404999440750846e-16,0.3291180943233167,0.26666047488087896,0.19242723158558678,0.028764838268420474,8.756173411999626e-19,0.001480912937965831,1.3336175560687022e-17,0.03255290862745378,7.524568182281059e-17,0.0444663134666248,3.0098272729124237e-16,0.05178871536088361,1.2186871902326243e-18,0.002762489018956076
8128,20,723,True,6.388268673984132e-16,0.0,0.0,3.592499785387762e-16,0.30147605493073004,0.2524216350129692,0.19354261179758078,0.026515860554631777,9.060184238462296e-19,0.0017751754128501806,3.926753613073515e-17,0.017869804158456733,6.129210025634323e-17,0.03986406669993299,1.5849507238538081e-16,0.05902680867146412,1.2913156524694106e-18,0.002178281068854199
8128,20,726,True,1.430334369764491e-15,1.3053618680138847e-16,0.0,3.6348772129899495e-16,0.30471104483146116,0.2406749894596662,0.19396942279747123,0.028015450056854307,9.080248011510796e-19,0.00404645947359166,4.026015487419658e-17,0.02219505700964458,1.2363481187999272e-16,0.047253500862398594,2.0433348139492743e-16,0.06171214258191075,1.1359963435947205e-18,0.002420378894152704
8128,20,732,True,5.385660479937506e-16,1.538308272726189e-16,0.0,3.4755586725903487e-16,0.33436504610271445,0.2357601379183764,0.1924599730345101,0.026300785162538205,1.2489004300035479e-18,0.002119454991038418,4.487285757996478e-17,0.0412924010898387,6.679335142771954e-17,0.027106375345231977,1.7740569201675818e-16,0.08851235201259772,4.813013934136467e-18,0.0037509985955563622
8128,20,751,True,1.1564721201281844e-15,1.9153082371128986e-16,0.0,3.4468017988364965e-16,0.3136305593537294,0.25901423926546296,0.2049210633050617,0.024125010173836944,9.842361937043216e-19,0.0015312030725130406,3.475786805099756e-17,0.021119804590147215,1.0833763440822058e-16,0.03840084470097884,1.5210488147449693e-16,0.03685044829882398,5.430916882968369e-19,0.0017506945024556235
8128,20,756,True,6.412155538217405e-16,1.851465711599446e-16,0.0,3.5236454016490407e-16,0.33915745875967135,0.24537874393329745,0.20595971215522021,0.030199986571061904,9.24711447881386e-19,0.004789608981612267,3.7456688071519657e-17,0.020541811069295007,7.686303190037577e-17,0.02016259031258962,1.5372606380075154e-16,0.1153913855686582,5.852607511174946e-19,0.0008338982585033411
8128,20,758,True,7.343159996992724e-16,2.0200420591415025e-16,0.0,3.518863939979206e-16,0.32986891080785896,0.22115761184712535,0.19406142466538626,0.026428943423168268,1.2175478135314855e-18,0.004142021850476147,7.654054864508402e-17,0.03410571191650234,8.235414582258983e-17,0.022056171329796315,1.2527911267820518e-16,0.062105933301626594,7.9729738171962525e-19,0.0034421901874608237
8128,20,764,True,5.453233127064469e-16,2.7052962838458336e-16,0.0,3.545863413851984e-16,0.3129987411680652,0.2535924673891372,0.19276764460660584,0.030081073684990748,1.0093880363218752e-18,0.0031539639382436794,2.354012421692128e-17,0.02408419881496331,6.708729208296553e-17,0.0403903029824665,2.5840333729840005e-16,0.06906690203558402,1.1891892464176947e-18,0.003205449657062754
8128,20,765,True,9.344403932428987e-16,1.3614425128268184e-16,3.552713678800501e-15,3.4211674414582735e-16,0.3163018870439433,0.2450292308570911,0.19765348645320774,0.029649583056621884,2.2674848703336728e-18,0.004541608921921897,3.9803937730677406e-17,0.02753334675029431,8.292516097220289e-17,0.0337693211173862,2.336100983107246e-16,0.06188111991402766,1.2599692565785222e-18,0.0012818866453322532
8128,20,775,True,6.063260519950693e-16,1.2521343592304584e-16,0.0,3.5051158931925727e-16,0.31753019907525737,0.25926578479713935,0.18896103912241394,0.0249124689938774,8.106856712412803e-19,0.003433534743253437,1.7294627653147313e-17,0.026209430589601627,6.816546877614193e-17,0.04916647805025029,2.7266187510456774e-16,0.08871564459288818,1.0650854496272177e-18,0.0010140723791480593
8128,20,779,True,9.042557849649237e-16,1.5587825416605234e-16,0.0,3.6552099851316274e-16,0.30829368336546087,0.24262686664567915,0.19799553742228274,0.025627819756073405,1.78400961051438e-18,0.004704599857202451,2.854415376823008e-17,0.03507303975905524,8.367643910214609e-17,0.03771085384592175,2.485123582927594e-16,0.09670833946965703,1.0945578367644118e-18,0.0009728182980963821
8128,20,789,True,5.63168136403212e-16,2.0502195144479722e-16,0.0,3.510473610551791e-16,0.29800593350273863,0.19512356342009257,0.19620915562721303,0.02816676674801263,8.235068231748771e-19,0.001798531911631923,2.83794676531625e-17,0.02377495307281437,1.0577882461734721e-16,0.03743243075693421,1.9325448921086365e-16,0.0534889763249531,1.1036045981159082e-18,0.0015159487134528847
8128,20,795,True,6.416645133616192e-16,2.114765544339655e-16,0.0,3.519414180801035e-16,0.2946404921079675,0.2327189820592671,0.1978266464829441,0.025380129786927382,7.808803708686503e-19,0.001854457703740689,5.411806926097844e-17,0.025460343228193752,5.664496463165852e-17,0.02974284981499916,2.1294312311643516e-16,0.046941593925236204,5.198806716709843e-20,0.0014420193932706514
8128,20,799,True,1.1176336825918419e-15,1.6859423697782666e-16,0.0,3.5421148792283464e-16,0.3316558905409706,0.25533990112517463,0.2040207872339246,0.027320843923585726,5.013999475231789e-19,0.0022163050341378948,4.061754780094914e-17,0.03947708423233848,6.400519560412724e-17,0.03984410227185422,1.2801039120825448e-16,0.06692042407657045,1.212710159062329e-18,0.0014746632655343384
8128,20,805,True,1.425617946609193e-15,1.6241684378189568e-16,0.0,3.6294924203067223e-16,0.3063536086196448,0.2513419485179717,0.19708434692978896,0.030079185380802755,6.440789803009442e-19,0.0011865560478139172,4.024165475019791e-17,0.022017064525315305,6.02156354520483e-17,0.03162605273124497,2.169775133804017e-16,0.06315365429369878,1.856273367980718e-18,0.001596641309141928
8128,20,806,True,5.93075050604297e-16,1.9098681379371611e-16,0.0,3.509369145679458e-16,0.3228955909558848,0.2424891256831484,0.19124193270305131,0.030601626982075504,7.64575529261157e-19,0.004025402664935029,3.973227868252842e-17,0.025592967745488065,5.592323871167319e-17,0.04193370183007345,1.713830461488542e-16,0.07174505397153617,5.793970252109436e-19,0.0014505488310471997
8128,20,821,True,8.388359962641332e-16,1.9116685767182742e-16,0.0,3.288476313802696e-16,0.30407453011076085,0.20727766359997524,0.2045784726021749,0.02868802421329337,3.4081870383500583e-18,0.0038164565522654957,2.9219486035127703e-17,0.014585894508114351,1.0906198522720187e-16,0.05221825638841023,2.1812397045440373e-16,0.098811989373731,9.131089385977407e-19,0.0017249335863165536
8128,20,848,True,6.386500217729107e-16,2.123664745487888e-16,0.0,3.4054450735040573e-16,0.3237820001001013,0.2035423234965061,0.1966131639429553,0.027906246459045575,7.567275659344363e-19,0.003002700445111672,6.246126191751317e-17,0.02504114783121688,8.904698733223574e-17,0.03639867046304396,1.7188031430368511e-16,0.06777561729296762,9.978906590201722e-19,0.0011192343855254971
8128,20,854,True,6.873811941232191e-16,2.0841935456230468e-16,0.0,3.4256360629625464e-16,0.3028837335250638,0.23565202978723213,0.19061821138950225,0.02969189937493663,3.3563534869297813e-18,0.0014693823895022974,5.301007867066746e-17,0.049844224513603846,1.25868143904404e-16,0.03332501105598805,3.9126037194944515e-16,0.058599371918539395,4.17738112554459e-19,0.0015880642812824565
8128,20,861,True,5.036817640338713e-16,1.9574044183750891e-16,0.0,3.659659609077766e-16,0.31506780448531846,0.238684630338228,0.2057017225876552,0.03469634538108869,8.457309923302379e-19,0.0016885045325260371,6.626379579403565e-17,0.03752025172819057,7.147072687223186e-17,0.03323915709932632,1.4294145374446372e-16,0.03384969433696515,8.426316159751802e-19,0.003282453633257814
8128,20,886,True,5.85457716539236e-16,1.958591023029684e-16,3.552713678800501e-15,3.5051251325163564e-16,0.3378141047732572,0.2573932512547321,0.19578412051607655,0.027193301810179104,3.582516858454209e-18,0.0032831410948058913,2.837123608386394e-17,0.026885141705087295,8.578857507013208e-17,0.034433039909054074,1.7157715014026417e-16,0.04469903085957768,8.38359219809816e-19,0.00128439212702099
8128,20,892,True,7.216888064142079e-16,1.8067287176807302e-16,0.0,3.3615650121852924e-16,0.31175590393153146,0.21218976647759663,0.197293271892286,0.026535457733232428,1.032395411792884e-18,0.001717033993765061,1.7512466194427106e-17,0.02594481407707454,7.004986477770843e-17,0.04653633276126044,2.205143867643868e-16,0.07293131852955584,8.613843232983859e-19,0.0018603720916586988
8128,20,911,True,6.648122510884319e-16,1.5619987157483596e-16,0.0,3.557599852166044e-16,0.3016286818663704,0.22832163664911373,0.20390069236742733,0.027868661904696616,2.1641023798451553e-18,0.004111158841878793,5.214428627432442e-17,0.023027256691894066,5.5401020924035974e-17,0.05333564854097741,1.0988062460798295e-16,0.05693816470932141,1.7158162102773549e-18,0.0014258316686197273
8128,20,917,True,6.4075395808497e-16,1.53989155179365e-16,0.0,3.3801401086445844e-16,0.3481903960172392,0.23006478202409497,0.19674384198059375,0.027355935383977566,7.041850842449419e-19,0.000978638275683503,3.336354409306029e-17,0.014338587695102196,5.33961631737475e-17,0.051001235436406916,3.2426668705565605e-16,0.0934071755705854,9.416717044347999e-19,0.0021345142771770718
8128,20,928,True,4.0979525467992816e-16,1.2358767305146076e-16,0.0,3.412256218642771e-16,0.3242845098745348,0.23833180715824026,0.20077479283775873,0.031206466852698487,8.052014287741601e-19,0.0031052921166352804,2.6963029346008392e-17,0.02380476594548971,5.3926058692016785e-17,0.05344064810546628,1.4200998427033028e-16,0.06772490411979969,9.935679507938613e-19,0.003029322015654164
8128,20,931,True,9.985073833863724e-16,0.0,0.0,3.549405839056155e-16,0.305731697556075,0.20964042358471052,0.1917992454924468,0.03108044595992166,8.631993171479314e-19,0.004048821017432201,4.621702440779124e-17,0.013139566315220204,1.1602642052826368e-16,0.05342311120787621,1.7661026967600832e-16,0.06761236423388539,9.252279749375716e-19,0.0019239799882811793
8128,20,935,True,5.142376974277785e-16,1.9779878613181217e-16,0.0,3.598137664528845e-16,0.33426819815501885,0.22724330469939558,0.1845814773268917,0.029515709694287268,6.768476727052849e-19,0.0016453018393437302,2.597347751624072e-17,0.02234822547668736,8.810022609742735e-17,0.04902740704961196,2.350862417085253e-16,0.07641007895482212,1.3977058962272223e-18,0.001579865843629701
8128,20,943,True,6.518939557195892e-16,1.9220934295680033e-16,0.0,3.505574245287104e-16,0.300072548612704,0.22999043842702666,0.19166621973494744,0.03145461303346889,1.0195339807426954e-18,0.0023282763981929072,6.195995804273661e-17,0.02137420602388224,3.244443364213951e-17,0.04182349831552633,1.5434065828261102e-16,0.03758592146416596,1.697640509686429e-18,0.003421068691271686
8128,20,947,True,6.003902516521518e-16,1.5279078527432847e-16,0.0,3.526176532464257e-16,0.3174010165896384,0.23547827230223414,0.1916871489908569,0.030090392614063925,2.2254613506565833e-18,0.005959360974146245,2.3778892997185558e-17,0.027679985967795966,1.0387666771689868e-16,0.037835661055641324,2.2143833479213265e-16,0.07015346517712029,4.88598837607545e-19,0.0031878216179470507
8128,20,949,True,8.8136431812803455e-16,1.9590982318853779e-16,0.0,3.4324524674902125e-16,0.3005598670980463,0.22615530966782624,0.20197542632341475,0.0277056343251255,1.0758841774023854e-18,0.002636256491120311,3.629347474119211e-17,0.026983789806952454,1.0888042422357632e-16,0.0661823338233506,1.5143689039630005e-16,0.04130436841016865,4.66335932185309e-19,0.0011772584597819025
8128,20,950,True,5.467539891651237e-16,2.0116640998217924e-16,0.0,3.408140915893558e-16,0.2961624416581069,0.2548546696286264,0.20450754763745752,0.026601247917160287,6.873297106002002e-19,0.0035093841805960463,2.267711096953983e-17,0.025146502292037545,1.6698149297082693e-16,0.04115263980010581,2.630078320358997e-16,0.06416136700356967,6.873297106002002e-19,0.0016219770521557157
8128,20,952,True,6.71303338391589e-16,0.0,0.0,3.431612802055044e-16,0.3061144407536259,0.25068444308320353,0.1985234925219943,0.0243149980612923,7.483979869609593e-19,0.0025090905620616783,2.300651534745505e-17,0.02050694152594661,8.391291729894865e-17,0.028816514203105305,1.347594856167791e-16,0.07873160164880184,4.134713379890323e-19,0.000735840456110454
8128,20,958,True,8.656297246374285e-16,0.0,0.0,3.4886617476709344e-16,0.2852067460637179,0.22330675299505268,0.20355413041856313,0.0237792902863453,1.4987724161158811e-18,0.0031628329605709856,4.077828347763986e-17,0.03224137130705694,7.95679207363627e-17,0.02794130694779718,2.3953736913661143e-16,0.0681180692962297,1.7062722074112423e-18,0.001246759272702645
8128,20,959,True,8.823253933015476e-16,1.3477626250876992e-16,0.0,3.608593231419029e-16,0.31976406204224744,0.22933695600545834,0.19525827743931157,0.030096941993821125,6.955722114692574e-19,0.0018107588133545842,6.135470261245178e-17,0.03332561002564723,7.856223833012103e-17,0.04014570060408618,1.780664861361299e-16,0.06328266047232425,1.7389305286731435e-18,0.0021078085820754044
8128,20,963,True,5.001140205355379e-16,0.0,0.0,3.601416798004201e-16,0.28631150923949394,0.22995307267604598,0.19366007648635586,0.03192164243990473,1.1433281688839574e-18,0.001977315418959271,2.439100093619109e-17,0.028670429529771745,8.477082390805201e-17,0.037704358724704325,2.926920112342931e-16,0.0695000211230275,7.172803043830129e-19,0.0015833881962607555
8128,20,968,True,7.666588997268239e-16,1.4161626074233212e-16,0.0,3.3314883290477066e-16,0.3255465747005704,0.2575392033107129,0.20308070581266122,0.02404426625194873,7.247175124702272e-19,0.002690861688586942,3.2434235051225483e-17,0.040916726366199564,1.1574948068759503e-16,0.07757208675576514,1.6369097127936372e-16,0.07613293253075502,7.247175124702272e-19,0.002916806834580403
8128,20,975,True,8.482614112219673e-16,1.3431278808705833e-16,0.0,3.608200277265292e-16,0.31291962454813277,0.2246635931980502,0.19524144504269078,0.03106116694270253,5.869937360940307e-19,0.004688102317439291,4.2163287893638224e-17,0.02378117329432477,8.242724857830291e-17,0.05270717372505801,1.6188896748912296e-16,0.06552302092206076,8.645810841678681e-19,0.0020952826875071232
8128,20,1009,True,7.708361644985402e-16,1.8607209228206145e-16,0.0,3.4070975916202275e-16,0.33224292078490253,0.26463682227080726,0.20031494930493468,0.027996300893160884,4.688219461499339e-19,0.0017783132609976245,3.898183378280418e-17,0.03425892317397349,7.796366756560836e-17,0.06242247590713392,2.409757934076494e-16,0.06024590113093521,4.622406412814483e-19,0.00277190739352403
8128,20,1013,True,4.349134789298313e-16,2.199540824707014e-16,0.0,3.477327211789409e-16,0.2988509100510843,0.19561847695839346,0.20509847156340763,0.03452087097785439,1.1207692846640807e-18,0.002308596529138199,5.382832037701975e-17,0.026174796093030663,1.0892729527991679e-16,0.03978410726792278,1.4354218767205267e-16,0.080002902393946,9.071094316239828e-19,0.00240079738541254
8128,20,1014,True,7.027384309246716e-16,1.8781689865855934e-16,0.0,3.5793241467386127e-16,0.2748271502551517,0.21152111996360404,0.20112578602895725,0.027991347532301647,2.1282066965883283e-18,0.002787260476058241,4.148210063114244e-17,0.015209821207574166,7.943266046394027e-17,0.034947734407715626,1.5211370778778091e-16,0.06269596174246582,6.341447105869716e-19,0.0028767805242871478
8128,20,1016,True,4.519950545659633e-16,1.8290531550428614e-16,0.0,3.4907290014926066e-16,0.282077779561031,0.2281972581492089,0.20545409659253622,0.02761026556642371,3.128126415801335e-19,0.004830383498997044,4.188228543816384e-17,0.03627392163770475,8.008003624451418e-17,0.04346205742187619,2.3974534204514004e-16,0.07336863984078178,8.776543750081e-19,0.0021800840777667536
8128,20,1031,True,5.256133701586044e-16,2.037029678547194e-16,0.0,3.419744034194333e-16,0.3106227025921219,0.22384862873587444,0.19060287398152573,0.02257924592092712,5.474894888152626e-19,0.0016574377236903794,5.2741373452220675e-17,0.017616523674200652,9.343820609113815e-17,0.04430699072788091,1.868764121822763e-16,0.05682991828221448,1.1693364528477708e-18,0.002074983692393503
8128,20,1051,True,4.461273558717578e-16,1.4644861626825717e-16,0.0,3.4791771408549254e-16,0.31195676105267367,0.24470833138143713,0.19362913107614377,0.030484133069835793,6.535068689527697e-19,0.0023688449074959626,2.8233700054506693e-17,0.022003081308115832,7.084805161637327e-17,0.029435934116767773,1.45052265484932e-16,0.08715173180505871,2.2664416482020625e-18,0.001780629511531079
8128,20,1054,True,4.607973166233152e-16,1.5852954203689424e-16,0.0,3.6495600655681675e-16,0.31949112972329874,0.23077323764491905,0.2017890783253819,0.03185513509339137,1.7785965436048413e-18,0.003227716931492409,3.9909701075816143e-17,0.025219294351642205,1.1589907686188434e-16,0.04842978986706217,1.593240236839419e-16,0.035556542631510646,9.635507804444282e-19,0.0023095381815630696
8128,20,1056,True,6.21572974272611e-16,0.0,0.0,3.4617679061419884e-16,0.320479226697371,0.24599405357584633,0.20174377553656034,0.02920178357461156,2.4746394692431984e-19,0.0028520702466705776,3.3049708103265636e-17,0.036910826178987374,7.11406072425664e-17,0.03178199692754862,2.818345301731631e-16,0.06693037633486813,1.66735798224765e-18,0.003079669289150161
8128,20,1061,True,6.373291541331833e-16,1.4434644598887483e-16,0.0,3.5063861827286e-16,0.2942706747773944,0.2480890999596506,0.1938313352167902,0.029524925715560296,1.099646901287192e-18,0.00265916517016329,8.146109481334996e-17,0.021388088589596746,9.31521258174382e-17,0.03952058209112378,2.447592761290537e-16,0.05584480391376323,1.9887962600915519e-19,0.0018711510286375179
8128,20,1068,True,5.413618046603141e-16,2.1439032436518653e-16,0.0,3.497575367273107e-16,0.3239926969581697,0.251229222644036,0.2005081204948778,0.0277716261308907,1.5860209120907636e-18,0.005960956745926462,5.174997518733725e-17,0.026780725611963607,5.174997518733725e-17,0.05633486854282773,4.000405930173224e-16,0.1062767343982387,1.5566632467575346e-18,0.0012923376092909738
8128,20,1078,True,3.345643500883717e-16,1.8633397943497748e-16,0.0,3.496910461637203e-16,0.2718124085915493,0.21676573088900386,0.20288219643322036,0.025540091103152692,9.218676351889876e-19,0.0012374482697893414,3.7625616564791426e-17,0.028911893940458237,5.899952865209521e-17,0.05076953305380367,2.3599811460838083e-16,0.06258672012432563,1.3979435701982834e-18,0.0016721385834375473
8128,20,1084,True,4.593360574966164e-16,1.3344157447702668e-16,0.0,3.3946784054197226e-16,0.2826260702663427,0.18438963252429275,0.19920540999518266,0.027338343893490873,1.011200177447335e-18,0.001190779922542333,3.6143572618622744e-17,0.011291809467579175,7.258850764712585e-17,0.03124683523105704,2.49822951716e-16,0.05884527415429753,1.624358235564198e-18,0.0013767394082249904
8128,20,1093,True,5.133396441755738e-16,1.4224670043919453e-16,0.0,3.495515131876953e-16,0.33629650074787804,0.25978361822468377,0.19769888074047426,0.03415311908026588,1.1167744580181448e-18,0.0018135785485441321,2.2781598085517067e-17,0.02113279048265374,4.7649043542107505e-17,0.048303420037236665,1.9059617416843002e-16,0.06703584847844651,3.8534834023072546e-19,0.001967296812278884
8128,20,1094,True,4.610134732845264e-16,1.6652781764017789e-16,0.0,3.6470101761067103e-16,0.31332300932786566,0.23428880783645148,0.19781641701371178,0.024043384983107947,1.463573863277273e-18,0.002245287284731595,3.0110578297980395e-17,0.03902134629341155,8.332482028680925e-17,0.058397452556071365,2.0435448467052567e-16,0.08647127595772983,4.704777859059437e-19,0.001507825520667128
8128,20,1100,True,7.960726645661669e-16,1.8194826833360563e-16,0.0,3.4270348826208755e-16,0.3113549968764415,0.20781498005618054,0.1995908461085547,0.028385581433626298,3.2466630897709044e-18,0.0026724248416877374,3.334225951499828e-17,0.03101381706842617,1.3336903805999311e-16,0.022672754008191322,2.2363866278652677e-16,0.07067942463207845,1.1727681133049083e-18,0.0011159417795491608
8128,20,1101,True,1.3379747870719483e-15,1.3367601106598766e-16,0.0,3.4986421004926995e-16,0.3427676015177154,0.23536977959596755,0.19663092454943046,0.02609073759429022,8.154198347143972e-19,0.00470796009301757,2.090585604799917e-17,0.03045689195206281,1.0111815405591266e-16,0.03424570224954175,1.3594515518519173e-16,0.08525236447650615,1.1694052785050328e-18,0.0023314770693670145
8128,20,1113,True,4.660424887408392e-16,1.75131769578171e-16,0.0,3.45514685553981e-16,0.3391118188784911,0.2726848608936714,0.2041848787061281,0.029029597597028896,5.146985344754683e-19,0.0033050357688523112,4.95835263879299e-17,0.03081607185534595,9.43790146295544e-17,0.036385190487708975,1.4047682121012214e-16,0.08892188904400534,1.3653588537329278e-18,0.0015849067123282845
8128,20,1120,True,6.097775794786253e-16,2.1336063537889346e-16,0.0,3.6095061234354785e-16,0.28642907391916056,0.2123154963421313,0.2041941417792801,0.028143340153326674,9.70452869179733e-19,0.002441879779411714,3.839411486726724e-17,0.024286442956362765,5.230581081667663e-17,0.015961144009122498,2.396600801537775e-16,0.08102639806703738,2.218177986696533e-18,0.0029776358121440254
8128,20,1133,True,6.129323783185396e-16,1.62589905849243e-16,0.0,3.4773927548669226e-16,0.3792336094591158,0.19965728525071397,0.20238424968251678,0.03119750036752963,1.837233617798493e-18,0.0014720480709576333,4.237808805585203e-17,0.05681971009521788,1.0640799874639487e-16,0.027672953043464385,2.381096130931988e-16,0.11589675972474203,7.035974150417346e-19,0.0009553105188419227
8128,20,1147,True,7.844728796121218e-16,1.4755845054921256e-16,0.0,3.412766061401741e-16,0.31302575657300974,0.25615825328189484,0.20033462617194023,0.026667515569161904,1.958689128550764e-18,0.0030795109474287753,3.1339026056812227e-17,0.023483444109577326,8.968086710191363e-17,0.05350819903622532,1.9611821990303045e-16,0.0593849532435522,6.369189258895382e-19,0.003043706189087938
8128,20,1157,True,5.929903919250103e-16,1.7943249231607001e-16,0.0,3.586394801003851e-16,0.3095274260849095,0.23145175391489428,0.19748516557193782,0.03144746217576731,2.4357420707362606e-18,0.0021001269672657986,1.8877974940129043e-17,0.012911982923507344,1.0455733149982408e-16,0.0632394350704999,1.457591575330487e-16,0.03688460881562925,8.651354536735841e-19,0.0006382972778443352
8128,20,1158,True,1.0740482766196163e-15,2.0397617189531118e-16,0.0,3.529131930665164e-16,0.31266120924647317,0.25066103653637245,0.19705587536437325,0.028431070955474973,8.0089119939372855e-19,0.001971515906185541,2.962403964414336e-17,0.027026583211282092,8.20112588179178e-17,0.033618106874270984,1.8678443668486652e-16,0.05838709057972425,9.923469083535956e-19,0.002635746836907441
8128,20,1166,True,4.848269694757606e-16,1.255495590917244e-16,0.0,3.354683413193827e-16,0.28788249790076564,0.21364817578595247,0.1947449215466139,0.028264149587601598,9.12795299753513e-19,0.00520870205443275,7.482773216789809e-17,0.01573146724654272,9.347023869475973e-17,0.03055812776286749,1.4773683845795096e-16,0.09487770185378193,4.855175015959446e-19,0.0011419010121496815
8128,20,1169,True,3.909077677013952e-16,0.0,0.0,3.634019978115486e-16,0.28413373959762217,0.22975502347536259,0.19019370474469321,0.0275777470373738,8.083929267159532e-19,0.001094725454147481,2.3405095112757645e-17,0.036151531275937364,6.898286307976134e-17,0.03495377647384063,2.759314523190454e-16,0.08648510661642039,6.362431114931562e-19,0.001170578035713998
8128,20,1172,True,7.233332863833786e-16,1.7329707076218598e-16,0.0,3.5021328225709585e-16,0.2803449960423114,0.23988360064903333,0.18771461040593132,0.03501742658768311,9.197400204134316e-19,0.0020134070771251115,4.288705442580323e-17,0.026893876690476937,1.413302326693934e-16,0.03531173475478336,1.3363319681628593e-16,0.05736036043893907,6.817259313081134e-19,0.0021010005721022436
8128,20,1175,True,1.0344154755073807e-15,2.0703481281622417e-16,0.0,3.506573094661674e-16,0.31448604973098343,0.230128682529664,0.19941103450661932,0.02982963611257536,2.160244551681244e-18,0.00292735901217824,3.042489924954194e-17,0.03699138764567366,9.697645082881689e-17,0.028130907809748164,1.6630850891471954e-16,0.08404132113498222,1.4632035644074396e-18,0.0013859543176451192
8128,20,1186,True,6.578151019385066e-16,2.1479394863982605e-16,0.0,3.526392171340323e-16,0.3112859002501759,0.21245331304903078,0.1992661060854158,0.026701610472266896,1.6740331516457253e-18,0.0014244407337407397,2.7756594080751095e-17,0.03126472656962881,1.0963585032308446e-16,0.031209602919503164,2.8300264975719283e-16,0.04793473396357084,1.2645622533499538e-18,0.0011977780216441778
8128,20,1197,True,6.369118038477998e-16,0.0,0.0,3.347849001127797e-16,0.30341335869995234,0.23029236841921705,0.1990395097941744,0.025836725972136456,1.510794468715037e-18,0.0050868286930701905,3.722348641492774e-17,0.028087013866284774,6.369118038477996e-17,0.06984609721683951,1.0107971071723741e-16,0.04910963574979352,1.1632339504664919e-18,0.002142635554319109
8128,20,1200,True,3.7384324166045807e-16,1.7873215729729088e-16,0.0,3.484086723612101e-16,0.3190906467668644,0.2458344996043386,0.2016022456658509,0.02846581780791846,4.895792208247205e-19,0.0014117501474903973,2.3376956792394402e-17,0.024902737878047723,7.19341594967577e-17,0.0386688115925179,2.595536398699335e-16,0.06327003979983255,6.119740260309006e-19,0.0019577740732009863
8128,20,1219,True,1.4679659028053631e-15,2.4494191839832393e-16,0.0,3.6106628209299924e-16,0.3019570071883358,0.2512815228525962,0.20462340622094954,0.026061862889886288,9.557069679722421e-19,0.003711886155920296,7.047449623248224e-17,0.028715411214174504,6.990966468842627e-17,0.029714483889787167,2.82070259095846e-16,0.09704995479804444,3.6964315681404557e-19,0.0015482660251277649
8128,20,1220,True,4.148062000521697e-16,0.0,0.0,3.421566453107705e-16,0.31089519172826074,0.2539048507806113,0.2032741655671029,0.028384560823158475,2.4305050784306814e-18,0.0038711571279968038,4.7575571821467927e-17,0.020730952862646024,1.0268352158150251e-16,0.07174035563590983,2.7382272421734e-16,0.06233635905686817,1.4867366194208727e-18,0.002505860665147371
8128,20,1246,True,8.249038417247538e-16,2.2091483046432978e-16,0.0,3.514656608850128e-16,0.30633843747090655,0.25990817295741214,0.19927142821627974,0.0283260447459549,1.6111403158686592e-18,0.0034526580723328254,6.000063613927761e-17,0.03252064652934236,1.5495123160394358e-16,0.031742017109337405,1.4737230875141297e-16,0.046442024290599244,1.2083552369014942e-18,0.0018774359456616453
8128,20,1251,True,8.418733042063547e-16,1.3222472760437268e-16,0.0,3.5920815205640503e-16,0.2842750899063226,0.19401918216995093,0.19240642752394005,0.028558434981133227,1.5414371010511737e-18,0.0035028172609615333,5.781638637139154e-17,0.017804098833826436,8.197804734193443e-17,0.03141598084648853,2.7290101125823903e-16,0.07681286425224713,6.1514169768225735e-19,0.0014100918204766183
8128,20,1266,True,7.387582116557603e-16,1.2126505740829164e-16,0.0,3.5658016572943797e-16,0.29774193654546544,0.2202531318612352,0.19677637543860868,0.028675188977041043,3.891493634544574e-19,0.00377483012981452,4.9669797718800126e-17,0.020616309013743533,5.1944553696561914e-17,0.04444320100543627,2.4625273721858675e-16,0.04965134103576481,7.76090589356252e-19,0.002171820201670153
8128,20,1268,True,5.089628192849931e-16,1.2674712176259828e-16,0.0,3.628930495147966e-16,0.28972499667836477,0.22507903856329084,0.20217954502562271,0.028643158946743956,2.6508480171093383e-18,0.0012758301096789193,2.633764648852134e-17,0.018673304723979878,5.276364046134812e-17,0.02644594453728482,1.6965427309499765e-16,0.0663047364408553,1.2536535344298303e-18,0.0009321143806472741
8128,20,1275,True,7.456387332167006e-16,2.0742791814477626e-16,0.0,3.5513903348236115e-16,0.3236276432126032,0.24509560368058514,0.19561040669877638,0.028441683893973686,2.4163381522986804e-18,0.002768743155019634,5.379660629610821e-17,0.02394183675025413,1.0030269897298946e-16,0.03812045851863125,1.0030269897298946e-16,0.0857135729178779,1.0477735316665663e-18,0.0024857086571010213
8128,20,1280,True,9.219675853619678e-16,0.0,0.0,3.629584043874554e-16,0.29387918589608536,0.20705317128512676,0.19840133062424453,0.026477777904873854,1.4489780052426655e-18,0.002167459015502515,4.2684394499954626e-17,0.023430114363896803,1.0121213335350152e-16,0.03034143307867089,2.9164970315483385e-16,0.04901947285122707,3.376346137800175e-19,0.0015084323490691396
8128,20,1282,True,7.808445252831233e-16,1.5137208190734616e-16,0.0,3.5791264563605307e-16,0.2881991690964503,0.22849046198377687,0.2010835862669579,0.028661268236199598,8.061973625151723e-19,0.0020716405075257103,3.770292840971228e-17,0.024151927635160435,1.5372394925490127e-16,0.04622821254452868,5.127618840594875e-16,0.05352808553218292,7.854776752023391e-19,0.0031015513863787364
8128,20,1287,True,2.296104895943246e-16,1.128979300614219e-16,0.0,3.4169796771715165e-16,0.30236754029529195,0.24321065927483124,0.20406639213198288,0.025157505150040137,8.688314830689792e-19,0.006146437142776444,5.319586408661881e-17,0.0316742875553531,1.0990127456747555e-16,0.03045395815441685,2.2862538399669265e-16,0.0314924230341983,4.3256452454814117e-19,0.0024698086589663186
8128,20,1307,True,6.269434781972585e-16,1.3909318213293208e-16,0.0,3.413425921873785e-16,0.27829990751579764,0.23761921355967114,0.19134721061959542,0.02790694212920739,7.34699388512412e-19,0.0025610886113428656,5.065954478342593e-17,0.01570117878698921,8.842016650417764e-17,0.040329039094031315,2.770824308105239e-16,0.06779016165691235,1.5420178672771138e-18,0.0017662470097715845
8128,20,1311,True,8.741877845833092e-16,1.4391482363948764e-16,0.0,3.6421611326641825e-16,0.311521914511464,0.23359430969119474,0.19911433560785904,0.028442798201530048,9.95559583000529e-19,0.0023428141951880453,4.6638098840945994e-17,0.04063477605396793,6.167909132643709e-17,0.029645079427415677,1.2748137828400372e-16,0.04475397612270509,2.871000020123934e-18,0.0032318396848387814
8128,20,1315,True,3.8949530981157936e-16,0.0,0.0,3.463165786435181e-16,0.3236895873069747,0.2485824991551975,0.2000978289660652,0.0281474633573617,6.339441891464505e-19,0.0007519274018151103,4.5376922534705766e-17,0.024835882469844923,6.491588496859652e-17,0.05069008041801693,1.8328109387705435e-16,0.12679860165743956,9.3865847127277e-19,0.0021958757191551403
8128,20,1320,True,6.404939334629964e-16,1.7188595405404458e-16,0.0,3.4147883252738594e-16,0.2955839275608065,0.2058905694110086,0.19671336101379888,0.030599665472915327,1.5735669350742338e-18,0.0032751067006539128,3.678508773928694e-17,0.02015134991218256,5.060889669518735e-17,0.027946808553979713,2.416998812274023e-16,0.07666810786032445,1.0038955517349064e-18,0.0009069604054219856
8128,20,1343,True,5.212267419877962e-16,2.011775325762368e-16,0.0,3.446032182046077e-16,0.30817412977596803,0.266028105214035,0.18781818008733295,0.026497881424898524,2.800293623606509e-18,0.004444635243037614,6.515334274847456e-17,0.03418700350589406,1.0033402132279585e-16,0.032813962578316765,2.5233922299603674e-16,0.049318122425656544,7.119979836639878e-19,0.002022287207013125
8128,20,1351,True,4.122942730871303e-16,1.8918508663122418e-16,0.0,3.296206414164394e-16,0.2962130362484012,0.22901581452335823,0.2008707521605179,0.030830128796569524,6.302497883026284e-19,0.001868168975525959,2.5768392067945647e-17,0.024247203009351813,7.035872307989966e-17,0.041692285504224824,1.9488404367324722e-16,0.08659860440295444,9.544376382051814e-19,0.002512835612285734
8128,20,1353,True,6.308152032588801e-16,1.5279022252112064e-16,0.0,3.4103739178577627e-16,0.28367357969028184,0.24582242399678608,0.20018364472057218,0.02480662176542655,1.2320609438650002e-18,0.0032268534821263076,2.596157106615388e-17,0.04981213457468107,1.0307991013678604e-16,0.0361299286474872,1.5092685531913067e-16,0.062287658181328344,1.234187163218219e-18,0.0011544335705561065
8128,20,1355,True,5.867856602311888e-16,0.0,0.0,3.276888476464731e-16,0.32320693202006984,0.22365958275091052,0.1958978105011883,0.027952965553349817,7.969261813495325e-19,0.004149734389848167,3.8380751229061574e-17,0.022236488136048255,1.0006021890818772e-16,0.04376232854870552,3.034704351252755e-16,0.05574360923540993,1.275081890159252e-18,0.0009614914527212525
8128,20,1377,True,8.3621143446584e-16,2.2089492790247146e-16,0.0,3.652837117523524e-16,0.34919713505058547,0.21272916205959821,0.19810018330577367,0.0295129221606164,1.5829765417872203e-18,0.0010110844741607243,4.070586407863009e-17,0.04214777228972941,4.070586407863009e-17,0.03375399189301774,1.5739385348761648e-16,0.05864107555415921,9.332716902520529e-19,0.0022731843128627237
8128,20,1386,True,6.599894061284176e-16,1.4190235125536846e-16,0.0,3.434838753486265e-16,0.33414183815690707,0.24683846530190515,0.20421339514492534,0.028622473665682154,8.0642240153898025e-19,0.0031556281684877534,4.1249337883026064e-17,0.03924474013823606,8.120942779243223e-17,0.05352673515913952,2.6691006112256807e-16,0.07871260450692019,6.954511639505804e-19,0.001863718487065838
8128,20,1391,True,9.286388469027379e-16,1.5622878602575337e-16,0.0,3.4703219417433143e-16,0.35031114952602727,0.2712027353363602,0.20092533100726143,0.02649785781252109,1.2660458087918092e-18,0.0017960170367666358,2.8012775380684315e-17,0.014540471148221124,9.233001481990181e-17,0.05153110412480366,1.0803590901690106e-16,0.05894168654212766,7.989749791702767e-19,0.002119946373560189
8128,20,1394,True,5.2732465765904e-16,1.4910804547731627e-16,0.0,3.5483901863015097e-16,0.28851185904260973,0.1908501419986566,0.19884031918931566,0.023356017292919775,1.3732412959870827e-18,0.0019239048365230652,4.394372147158665e-17,0.02495276754787631,1.0012947278575845e-16,0.03473233562096894,1.980894962862683e-16,0.0766804224537634,6.847984498176312e-19,0.0030512396071680744
8128,20,1405,True,5.163599056567821e-16,2.1395459026541143e-16,0.0,3.5966461350561337e-16,0.3002088737189967,0.23058766897827826,0.20311078903542953,0.02723029541123909,8.404295339465852e-19,0.003246457294847385,3.8115517856853276e-17,0.02411657573601741,7.112598459354037e-17,0.03267545203009617,1.2473896277613437e-16,0.05632965190565548,8.256009889803808e-19,0.001290671696468746
8128,20,1416,True,8.461346864653398e-16,1.9437069616772508e-16,0.0,3.5881064614845875e-16,0.30945266458619597,0.25413182528703077,0.19887303014368599,0.03264152551646727,1.3771723412521798e-18,0.003349066331922803,2.0442815246555672e-17,0.016917417205441675,1.5974600223734414e-16,0.04303844195766279,2.1396440973486873e-16,0.062753171935047,1.0096761754708313e-18,0.002016911373367757
8128,20,1424,True,9.635272129821518e-16,0.0,0.0,3.4379866944863605e-16,0.31480550030205273,0.23980455307870066,0.20083990405958482,0.026039274214322398,1.3300608088961944e-18,0.002081154255372427,4.0102776554483534e-17,0.019564990424999935,1.2768583765403465e-16,0.042879983529077376,3.4049556707742577e-16,0.08648943620635145,1.2402564300319026e-18,0.0016524574039998724
8128,20,1426,True,6.244584527543116e-16,1.9281290445270195e-16,0.0,3.354017488111866e-16,0.2735256624475084,0.23015572628747574,0.19105410364728687,0.030419539926308584,9.647466082584489e-19,0.0030028054049485685,4.4468793148826736e-17,0.03580581875057522,1.0581173247812467e-16,0.033447916735809206,1.6465008780944194e-16,0.06703802440516332,6.431644055056326e-19,0.0008008396824018627
8128,20,1429,True,5.808655498982873e-16,2.0798844954430948e-16,0.0,3.496272631069824e-16,0.3201567430138575,0.23988549044593627,0.19631484476996836,0.03257596460608892,1.1561491437439551e-18,0.0043321881019960625,5.527982453829428e-17,0.03363279513048239,4.932903013307542e-17,0.04018494839598542,1.9089543214808912e-16,0.06492739358366992,3.805119045511159e-19,0.001499113124321634
8128,20,1447,True,5.660902028555519e-16,0.0,0.0,3.519830534752315e-16,0.32064990665968107,0.2550313957868533,0.20458715609674255,0.02385455611064903,2.509087635867755e-18,0.00234313858999825,5.352720289851211e-17,0.021697568596800564,5.51136430274665e-17,0.041253459048788445,2.830451014277758e-16,0.08411528222064557,1.7770596732123422e-18,0.001386456078724929
8128,20,1456,True,5.612245467353505e-16,1.3399792085448534e-16,0.0,3.684708390453646e-16,0.31701228115813923,0.2533406889777887,0.19867494601678556,0.03036997072285409,9.321480382117781e-19,0.0013001021870083264,3.3420812829389744e-17,0.04439489015119167,5.96574744455538e-17,0.06546327500768598,2.293472298098542e-16,0.07577745733793338,6.87379410534582e-19,0.001198686256785622
8128,20,1458,True,7.7894756368727e-16,0.0,0.0,3.4487768109560633e-16,0.3209710313147261,0.24104496387082758,0.1927490464554851,0.02881416222542044,1.4519992197290671e-18,0.002276761567115197,8.221785966055028e-17,0.04192259892704935,6.277466271436906e-17,0.061590707498974315,1.4692745068348622e-16,0.05991590831710615,4.2234627616688876e-19,0.0011799966842520183
8128,20,1468,True,3.958727522976996e-16,2.121087516470887e-16,0.0,3.389616210053562e-16,0.27515985866055215,0.2230542854866843,0.19524921715944768,0.028854357589433877,1.3681298542333706e-18,0.0018715443129632102,2.5392055151532357e-17,0.02113750005651859,1.3115322005828337e-16,0.03309068849010205,1.9793637614884984e-16,0.057931940514574384,1.1675848180436538e-18,0.0009658111180750925
8128,20,1479,True,6.557066713560968e-16,1.339792693396485e-16,0.0,3.6481797331130346e-16,0.30412656075576605,0.2261162852634258,0.2044080589015777,0.02723828761790435,1.9011709868443333e-18,0.0025970988144034357,6.063121175195856e-17,0.011953153870612025,5.459204780191777e-17,0.05900630396426644,8.196333391951208e-17,0.06183580178523017,1.6155280582372954e-18,0.0015166380660908238
8128,20,1480,True,6.65345705481925e-16,1.6340178536664522e-16,0.0,3.4307118275725775e-16,0.3109014240471683,0.22086710819564517,0.19624853887220858,0.028724307707748722,1.4091416735359069e-18,0.00524241439444087,2.7722737728413548e-17,0.016650817188767663,5.5445475456827096e-17,0.03988776152324061,2.2178190182730838e-16,0.03491769920086136,8.313343543544271e-19,0.0010402839265971125
8128,20,1487,True,8.206959785174427e-16,1.7893349121767297e-16,0.0,3.5230223914576926e-16,0.30269822967784205,0.17800617412328756,0.2074398806140217,0.032090872625475296,6.078372169359834e-19,0.0028677217639029237,2.365409007606187e-17,0.025851006184454333,1.0258699731468033e-16,0.04815622675215804,2.0071842098173855e-16,0.048807428326895684,5.3190616692367715e-19,0.0014849342759064258
8128,20,1491,True,4.2000640621145473e-16,2.1230690167682688e-16,0.0,3.5958794768722654e-16,0.3019345659498903,0.2536623893416418,0.193638874844242,0.024026395103369784,1.384258393218196e-18,0.005714425551068418,3.37015898137392e-17,0.02176998065115737,1.0149812132303817e-16,0.04068989517353759,2.855275238266926e-16,0.1152567916640484,8.206630670029022e-19,0.0009660659833623361
8128,20,1494,True,4.479346499417903e-16,1.8536377262220546e-16,0.0,3.498924455261957e-16,0.3148353505332355,0.23166058588555752,0.19452611521477362,0.029450897051670588,6.416199828038136e-19,0.0067543300777745344,8.384870853450811e-17,0.025944757591886417,4.158310132837114e-17,0.04548397989127965,1.6633240531348457e-16,0.11176950660228453,1.7893683192085853e-18,0.0010176178934687933
8128,20,1498,True,4.1258305230837773e-16,2.0750260189675254e-16,0.0,3.4041342510572464e-16,0.296675838575914,0.2538606910743291,0.1963455510213388,0.02903322245021317,1.5510308224189729e-18,0.003992327036448835,2.37969920031901e-17,0.028117617287879402,7.495066527618259e-17,0.042516198648531914,1.4810341711887076e-16,0.053126946128065955,5.785289731205889e-19,0.002676443750863559
8128,20,1522,True,8.432422131819247e-16,1.529346426946087e-16,0.0,3.6527870146709637e-16,0.29201397509756427,0.21333720849455623,0.19368821121461985,0.030056867644079024,5.203042168678525e-19,0.001962929924260315,3.329946987954256e-17,0.02685827585714509,6.659893975908511e-17,0.01822823598529276,3.07834305524896e-16,0.04417227448696763,7.79961138115272e-19,0.0014279376523387436
8128,20,1534,True,7.226059033514987e-16,1.819710271135666e-16,0.0,3.362924677036587e-16,0.31964226540952795,0.2629506674487514,0.2023472223328194,0.024502451985061218,2.330152223239844e-18,0.003828205984468346,3.4415867553978354e-17,0.028387528119957154,9.514783098828935e-17,0.05447502630099488,2.1117411690001284e-16,0.058112981261953606,1.1727045826189887e-18,0.0014494784143764287
8128,20,1556,True,8.079738818826834e-16,1.916002963955648e-16,0.0,3.5760706656943635e-16,0.3237122286257817,0.2337033841317402,0.20469047993897993,0.02839712319762438,7.001559202886876e-19,0.005187488634934725,5.984060817457263e-17,0.023009205628383326,8.961995779695202e-17,0.04533332373004515,2.308496805379094e-16,0.06552578274340592,1.899238052415635e-19,0.0009949949596505321
8128,20,1564,True,4.216157992262927e-16,1.47417588694344e-16,0.0,3.750442277961645e-16,0.31439965519091556,0.2668824821940505,0.20188422057207228,0.031122592850726105,2.407214823036658e-18,0.0034893287634416154,4.771717402031028e-17,0.03545595658967684,9.319700273397754e-17,0.07582251200264262,2.9177424847107947e-16,0.050592815809451394,3.7570717384086236e-19,0.0012959455624161867
8128,20,1571,True,9.650837411212033e-16,1.9618221669084876e-16,0.0,3.6476267649950245e-16,0.31099491063506146,0.2319745158199057,0.192415443058728,0.026165615820865785,1.302687830271591e-18,0.0005298054476068504,4.0733609674507573e-17,0.013687334574413424,8.835216669119965e-17,0.023823546981239646,1.6288956807794607e-16,0.04877942397643253,2.031235783335571e-18,0.0038867925582418013
8128,20,1589,True,7.03963350989388e-16,1.7850498124097667e-16,0.0,3.533847722237011e-16,0.2954903586459012,0.24538996568117522,0.19811943642624266,0.025598576264053048,7.238032156612437e-19,0.0050468269484304894,1.8632824475980023e-17,0.031130718505960896,7.411744928371135e-17,0.04119680219428438,1.5368028175621233e-16,0.07256985742034924,1.500784001525511e-18,0.0014623984269771266
8128,20,1617,True,4.2462400494015864e-16,2.2130734575383713e-16,0.0,3.574906441301652e-16,0.34406100633601966,0.2279616889077508,0.1860178685266715,0.03287583989051443,9.43988637535121e-19,0.002507890083879204,2.839356923060838e-17,0.044889069631952876,7.077066749002641e-17,0.0803533325459738,1.208305456044955e-16,0.08162394612559291,7.763866586494479e-19,0.0006842649142844786
8128,20,1618,True,8.621863720574145e-16,1.355624644248571e-16,0.0,3.433683790200528e-16,0.2775082211372245,0.22152063682915393,0.195455214461302,0.02740277294113409,9.241793848671763e-19,0.002121212431553412,4.5506930843659285e-17,0.03463745477911898,6.067590779154571e-17,0.03831851617300578,2.1390733060746655e-16,0.0470170437664404,2.1782189362055116e-18,0.0014764049812185489
8128,20,1624,True,1.0021771435387685e-15,1.6171588924843305e-16,0.0,3.37237516701185e-16,0.29866287862902313,0.23703214708423304,0.2010659971034493,0.02911783416084511,1.1915523560685052e-18,0.003760055718999173,5.553800579230199e-17,0.02412851215472831,7.949765211592986e-17,0.025358385873867795,3.5333480195442453e-16,0.09773107629301966,5.137762267653506e-19,0.0009767606884885096
8128,20,1630,True,7.006662379120455e-16,1.207686503790862e-16,0.0,3.615895926780799e-16,0.3132380680516032,0.25129974821110984,0.2059995953020645,0.03024671984807525,8.60305625772916e-19,0.002079406652006916,2.919442657966854e-17,0.03485086944977851,9.852795288120352e-17,0.05640774851220505,1.4682549346524435e-16,0.029869968562923885,1.887579012301473e-18,0.0009216620340645517
8128,20,1632,True,1.0078741000967652e-15,2.0918262873392582e-16,0.0,3.551061356651194e-16,0.2831463260544314,0.21637878701254687,0.19871701611587278,0.031203846093294657,1.5870736162879074e-18,0.002467801840063226,3.28927618006309e-17,0.022779535186069188,1.0157271144242607e-16,0.04920318835217646,3.9471314160757086e-16,0.04134591178438639,2.167204656541655e-18,0.0011044049686755534
8128,20,1639,True,5.710616159592021e-16,0.0,0.0,3.5947603854843845e-16,0.32241873018666595,0.2498830441177248,0.1971932695033504,0.025329028244803063,1.3384256624043794e-18,0.0016717694740984005,2.139650495992634e-17,0.02383600878996183,8.584223537454011e-17,0.04280953795720322,1.3275277959757442e-16,0.0676234344952747,1.3265610873373447e-18,0.0015540673854336875
8128,20,1655,True,7.908265840887372e-16,0.0,0.0,3.2475889093330886e-16,0.27151585491343194,0.2201949642352839,0.19594891206029136,0.027611097012358487,3.1411687964161536e-18,0.003228299806178215,4.5630373842658063e-17,0.019524423542647662,4.631492326599382e-17,0.047434217887847276,1.9081753412462503e-16,0.050241586310770234,1.5875176984456555e-18,0.001835789101023881
8128,20,1697,True,9.610602706326982e-16,2.0480380854086775e-16,0.0,3.6399622723347865e-16,0.3292789772360456,0.24607850883568536,0.1986355291503078,0.02570836400078856,9.276238596109221e-19,0.0019032486232322355,4.3744111979443756e-17,0.02725642581120158,9.048688247218921e-17,0.07599918104159743,2.4026506765817466e-16,0.05699256392773635,6.443163769197387e-19,0.0014738735691777766
8128,20,1700,True,8.09647318133876e-16,1.5781708268053346e-16,0.0,3.428152476738986e-16,0.32358253594570596,0.22750497472458028,0.20376308326872786,0.02956812614653346,5.996932646265289e-19,0.002779671193031359,3.7952218037525446e-17,0.015153366672170012,7.529530724518331e-17,0.05047241569745899,2.243353905779731e-16,0.07843365187253525,1.0330956422889136e-18,0.0010411565997796425
8128,20,1705,True,1.35682760545955e-15,1.6648659287066544e-16,0.0,3.724501514853508e-16,0.3035449084192238,0.25995328568658654,0.21384614271105062,0.030290175979024114,1.10241017108249e-18,0.0021732995418882097,2.4273110130417766e-17,0.020866788051293758,9.362235669396593e-17,0.044132449634631095,1.9418488104334212e-16,0.06658382434803325,1.8284069401121205e-18,0.006297407006112183
8128,20,1708,True,4.741594801386103e-16,1.6270369892601684e-16,0.0,3.416402458268737e-16,0.31801823142739943,0.22940502499462176,0.1902092433258413,0.024470164545002695,4.911257659460941e-19,0.002795859897238809,2.980537812790567e-17,0.019575323709012955,1.5670826811591311e-16,0.02242411752805248,1.7454757810090118e-16,0.07765107706771732,5.042037443945424e-19,0.0018547732164313393
8128,20,1736,True,6.114807209748609e-16,1.340601033065839e-16,0.0,3.4757472392905267e-16,0.3159901457972597,0.27643192195364463,0.20873714172296934,0.03117293725779501,1.1390188665130397e-18,0.004011730016528947,3.8052940066686773e-17,0.036925123210171634,7.458326036790181e-17,0.04284459580013825,2.689006771935994e-16,0.10537614917437067,9.485061767262853e-19,0.0015626382046940125
8128,20,1737,True,6.021714830976227e-16,1.954332241654933e-16,0.0,3.3776105799371846e-16,0.3315070110643627,0.22181055269087677,0.2010083639975785,0.028147750055621385,1.0903409879401126e-18,0.003689729299084909,3.074747169236845e-17,0.0402240596565842,1.2837570568084446e-16,0.05348727531721854,1.335444280878623e-16,0.07186187082394048,9.60858490386514e-19,0.001047357562832278
8128,20,1741,True,6.017620237248503e-16,1.4112999442164252e-16,0.0,3.436690454793185e-16,0.33630469145188163,0.26704584293532635,0.19613999558450163,0.03308338378283193,1.0511863496929215e-18,0.0024513730731445544,4.0922703658175045e-17,0.04044573942761309,8.970123517379596e-17,0.041275146184988745,3.181271431960037e-16,0.08609725202035833,9.591258669884776e-19,0.003175110147460713
8128,20,1745,True,1.0301235091150492e-15,1.3531088333227755e-16,0.0,3.588498304513649e-16,0.2874663730842361,0.2188255920003621,0.19438921196535028,0.027175858610784937,1.0717797971996638e-18,0.0034608192890648202,2.2864635673592828e-17,0.031366464902331984,7.460029511687294e-17,0.04074274491921385,1.5445383361398167e-16,0.07120738213897727,1.3725054248946257e-18,0.001987796987109155
8128,20,1746,True,5.818978377329161e-16,1.8929845080890103e-16,0.0,3.666473159651685e-16,0.3300257427198927,0.2540141274967698,0.1975919606581821,0.028305787339974468,8.911954797337499e-19,0.003936863438997562,2.4245743238871482e-17,0.019418675708821415,3.969333371994707e-17,0.039139905999237626,1.5209736187456e-16,0.057397961646793214,9.889869458327285e-19,0.0016359598236032184
8128,20,1747,True,5.518348874071159e-16,1.1965757827443863e-16,0.0,3.600679010431645e-16,0.3336681356359387,0.27022213503221626,0.19460921636244008,0.022559406130667127,8.08351885850267e-19,0.0021894485417183174,2.998709045122552e-17,0.04934041879207732,8.598196135758215e-17,0.027173550509242944,2.507842513761894e-16,0.08874808256608008,9.794878704033905e-19,0.0016135545046937281
8128,20,1753,True,4.974352572785588e-16,2.0646538604834008e-16,0.0,3.7280674893653827e-16,0.31876394549502524,0.2230713940113477,0.1995379821958553,0.02708763083904514,5.380674330721715e-19,0.0024273381114202465,2.950472643894786e-17,0.04075267346684536,6.217940715981982e-17,0.02322429163319655,3.984182400560266e-16,0.06606092006872291,9.715532368721847e-19,0.0036394388414380074
8128,20,1757,True,1.0166445227814313e-15,1.5922199217550595e-16,0.0,3.3657155296470635e-16,0.2837629018664952,0.25974621785492635,0.20379982304915692,0.030926331577345038,1.0730259680878485e-18,0.0022723829462931214,2.854341225819957e-17,0.030850556468957596,9.689591648307554e-17,0.04750872768418104,2.2834729806559655e-16,0.08415908784216673,4.779007386224219e-19,0.002617424785445464
8128,20,1769,True,3.6840328572481815e-16,1.9008639393087713e-16,0.0,3.4862526436061263e-16,0.3085902495033663,0.22555423756967596,0.19634596557994205,0.027990563576101187,2.6351372459849644e-18,0.0028523087730716844,3.0700273810401506e-17,0.019541525316933917,1.2388138615309002e-16,0.042456173227958804,2.422416231824739e-16,0.06212500498168986,7.549405658988673e-19,0.0013535014937455364
8128,20,1775,True,7.553606012033872e-16,1.258057049513539e-16,0.0,3.729876054076401e-16,0.3540765901248311,0.22880149319169302,0.1928487732434983,0.027633698442105288,2.0135587614930897e-18,0.004941948372677618,5.05930896064368e-17,0.03856782676841282,6.443388036777887e-17,0.03732709732006878,1.4448544653973425e-16,0.06225612092038764,1.404343769412764e-18,0.0024035718731093567
8128,20,1780,True,6.357607761245718e-16,1.5543782186451817e-16,0.0,3.5262022599526637e-16,0.3334078749476812,0.27367965086667234,0.1944817064427639,0.030086889286712836,1.9147882491680514e-18,0.0070620854940973985,3.8178219544596434e-17,0.04619146533005327,7.805541985892345e-17,0.03694377683614532,2.064233688867213e-16,0.10152978001159947,8.500866749464278e-19,0.0015493442488541762
8128,20,1785,True,5.898493619331495e-16,1.411783461728812e-16,0.0,3.5989945047577433e-16,0.28158666441290636,0.2437493190866847,0.19311504904245483,0.022245617482831437,4.199803172612401e-18,0.0021150294794427286,4.200845610872011e-17,0.022760365913663424,4.680164113690228e-17,0.060616772116224515,1.5564093253132602e-16,0.06355063966011178,1.3824594420308188e-18,0.0028534474153121187
8128,20,1790,True,5.912216618666486e-16,1.8886320961512622e-16,0.0,3.602554041630811e-16,0.2850728572797836,0.23828598223465006,0.19035866185834674,0.025667307787834947,8.663906484957225e-19,0.001631056253314288,2.6880616638322825e-17,0.04270617003246514,5.3228799506116e-17,0.027277772768893517,1.6064029998913995e-16,0.052081209319021264,6.275011718325779e-19,0.003317699829739912
8128,20,1792,True,6.195862964253326e-16,1.242379959771709e-16,0.0,3.4729231495192657e-16,0.30934889786614683,0.2445441725374577,0.19957460869273777,0.030006698120034123,1.5524032390185601e-18,0.0022834364329190073,2.4989632129825817e-17,0.015979679468603333,1.4903071094578178e-16,0.069442777740446,2.2492544103275675e-16,0.0550241678852575,6.050647426028638e-19,0.0016293371224907322
8128,20,1812,True,7.721395264805631e-16,1.7720106073662215e-16,0.0,3.367853690254041e-16,0.328026888241021,0.23024868881794713,0.1922491096231118,0.02778856724386572,4.0020835194531035e-18,0.005669409251002328,3.5353500186128885e-17,0.01663948997713365,6.665844739445474e-17,0.032997680629178495,1.901286703755518e-16,0.027916485635650846,2.1154419081330444e-18,0.0015178582970115575
8128,20,1825,True,8.414442928902837e-16,0.0,0.0,3.4467907782286867e-16,0.3052676614920617,0.2462919947606143,0.20229242246793003,0.030708551328589285,9.433732477561729e-19,0.0028145467525424635,2.644584938138449e-17,0.02053265445787964,8.966096384896678e-17,0.036766505647291,1.28699209310652e-16,0.0468567303261312,1.023931419415874e-18,0.001432551926904498
8128,20,1835,True,5.178533106352181e-16,1.304848615354953e-16,0.0,3.441639818955658e-16,0.2934171707094186,0.2419606170247784,0.19945097654990226,0.025354415075927672,8.608035711675866e-19,0.003255492192077348,6.473166382940229e-17,0.03932644977661691,7.421969122291754e-17,0.03290602709438864,1.4042094886167677e-16,0.05321111843557619,2.8909727596487724e-18,0.001078417700192568
8128,20,1838,True,6.910792195037306e-16,1.8398792735543164e-16,0.0,3.3492999031189366e-16,0.3032359857959414,0.23962517872909844,0.19838660159676516,0.02858374308494402,2.382968293174982e-18,0.005435089570285391,3.8113465337265046e-17,0.02083645300560938,7.622693067453009e-17,0.05804020588660908,1.2905807942595565e-16,0.07235740462421478,2.016532491030557e-18,0.0014751841516137299
8128,20,1843,True,8.476438917824906e-16,2.2012130825870367e-16,0.0,3.47363181884729e-16,0.31961874562835846,0.2667063730371316,0.20436584657898824,0.029276737491366278,1.3244435809101408e-18,0.003429474579858811,4.268361060583546e-17,0.031603317170870386,1.0540010903191453e-16,0.030557608504122213,2.0593384167044854e-16,0.09787084387527466,1.6088581380503792e-18,0.001233146740839636
8128,20,1850,True,6.858871285821343e-16,2.072080974384844e-16,0.0,3.4458503782842976e-16,0.33485726258618126,0.25388455537204746,0.19447194780865695,0.025951403597242108,6.001990098259594e-19,0.0014104362967814264,5.76191049432921e-17,0.02113978904927937,6.368449167335574e-17,0.043144555424598906,2.7435485143285364e-16,0.1287814370775081,5.746234040127634e-19,0.002039480032874228
8128,20,1853,True,5.880454718398168e-16,1.2969300140687603e-16,0.0,3.416148418402075e-16,0.2934433670543204,0.25329215547268263,0.19908155607870578,0.021165011912146717,1.2578653382089803e-18,0.0029418220995586883,3.971476374934329e-17,0.03432868273696259,1.028835974291437e-16,0.03954464713382193,1.3642741345767162e-16,0.10429182683460793,1.3177662944354759e-18,0.0011191217110857934
8128,20,1857,True,4.287025524160265e-16,2.1254322710263672e-16,0.0,3.4532545620472354e-16,0.3116087053532811,0.2173253362062489,0.19554733288896747,0.02590146914324976,2.384161137342303e-18,0.003736036539723849,2.5773484466032135e-17,0.032604880440076166,5.992817130033057e-17,0.03633742627376938,2.1435127620801316e-16,0.0540411968848884,9.680070596346412e-19,0.0013595286611182537
8128,20,1860,True,7.499805670502301e-16,1.4353411118099246e-16,3.552713678800501e-15,3.554912002801946e-16,0.32424099552101815,0.2585170629234338,0.19643743101134814,0.03292532781421875,7.13955210613336e-19,0.0011498301227089824,9.073560095439495e-17,0.022066251835397895,1.0012503868836655e-16,0.04114091386207092,2.53576833533799e-16,0.0705670128759963,2.4224356203673293e-19,0.0017089779614231002
8128,20,1864,True,4.778871583730559e-16,1.8437916577447233e-16,0.0,3.4481262512641165e-16,0.2893640471363182,0.2347046207138322,0.19496373082732904,0.02596868525703198,2.3246747719351796e-19,0.0013655571820283363,3.846651560417945e-17,0.01885106590790333,1.190233483230812e-16,0.045255041701991454,3.062058344823849e-16,0.0837522400542245,7.5129913289413e-19,0.002275304767994074
8128,20,1867,True,1.2195929090699798e-15,1.8705171834185198e-16,0.0,3.700110156801578e-16,0.3246839415461162,0.2215581019602522,0.20730268723139034,0.02673876844886348,5.136606206878948e-19,0.0014177001054369676,2.1885830862379588e-17,0.028750282987572685,8.273966733571688e-17,0.024273005411294814,2.712767344471598e-16,0.06920856246914954,6.464036510602881e-19,0.0015365682269027183
8128,20,1870,True,5.798849651542528e-16,2.1914416029031034e-16,0.0,3.5600101823310543e-16,0.33633036932054344,0.22192905713101166,0.200082505331976,0.028174117972711438,6.378301255395063e-19,0.0025223286778734994,5.493781584359936e-17,0.027682459574931484,7.660713890723429e-17,0.027712760603260278,2.128902014118203e-16,0.0569061005715771,3.4641553124770063e-18,0.0019726689934485815
8128,20,1885,True,4.4394955129638e-16,2.2147035671330298e-16,0.0,3.6557642937621753e-16,0.29268929867651744,0.24130052941564717,0.1994976879297364,0.02789256891878141,5.154310330754387e-19,0.002103239870421339,3.6995795941365014e-17,0.02556447114532056,7.332229788387513e-17,0.03440354340862563,1.993550670400057e-16,0.031336502106191835,1.1574215748832645e-18,0.0033719638384776926
8128,20,1899,True,8.634782147389874e-16,1.8886845242602988e-16,0.0,3.6678583804048194e-16,0.3047952310216515,0.2285269859120563,0.19597853490629608,0.03072019186433962,1.5074791789324272e-18,0.0032049743517362375,3.726383950673191e-17,0.028892335695843596,5.3967388421186727e-17,0.05929066478673713,2.8586035729188514e-16,0.10872361924438598,1.8008505412007337e-18,0.0020413853100383415
8128,20,1901,True,6.497817033429194e-16,0.0,0.0,3.451499715159773e-16,0.31364663032884155,0.2578357211267877,0.20321734058925278,0.02881184519423374,1.8005311566294756e-18,0.0024765194823328624,5.1117796424998e-17,0.030954754220106576,1.0151379859100567e-16,0.03682893508944086,2.39583524318219e-16,0.05789915008982002,1.2599382321867091e-18,0.0013979270215578007
8128,20,1920,True,5.705106182871171e-16,1.4200817169561014e-16,0.0,3.4295781351786856e-16,0.3378675375549514,0.2838104675299556,0.19876104486841836,0.0279043907101694,6.393973861085391e-19,0.0013362317057519417,3.020530378058697e-17,0.024343660734223248,9.082103496790034e-17,0.03737991557652636,1.8179051961145745e-16,0.053255233376440184,1.4158736147150142e-18,0.001998042305815139
8128,20,1933,True,4.816313081982938e-16,1.2448696269092251e-16,0.0,3.6193728265978586e-16,0.31549536240719755,0.2485387211366577,0.19921349845869443,0.02872281364192903,1.6357570523291544e-18,0.0012663826666845638,3.644222199196493e-17,0.020689464319640378,6.979230089937725e-17,0.06097744551246196,1.395846017987545e-16,0.042495220723155355,9.406861488247924e-19,0.004467357394701656
8128,20,1938,True,5.088941976685235e-16,1.1508018569380063e-16,0.0,3.379635174817874e-16,0.2717507590997889,0.20933284500474558,0.20438786826497057,0.027423578327194588,1.727094920531165e-18,0.004415127534304582,4.696262665143575e-17,0.035756654012223034,9.600649427336075e-17,0.04133175840316354,1.3111088611624653e-16,0.07105733265147315,1.0000676486808413e-18,0.0019478408475931128
8128,20,1940,True,6.843631173158408e-16,2.034414997410902e-16,0.0,3.4391904394319953e-16,0.2912315443321194,0.25242451185291354,0.19084772847603412,0.03206967706691961,1.8471769756247517e-18,0.0020781249964246006,3.640019287279181e-17,0.015671121676559163,1.3670018310512729e-16,0.02944714418619664,2.44809047296227e-16,0.0612508212688014,1.1375060272747441e-18,0.001873654234841257
8128,20,1944,True,7.125991812493884e-16,1.5135590788061965e-16,3.552713678800501e-15,3.4916251388735757e-16,0.3269284621212985,0.23915040088051331,0.2031522891716452,0.02876560070428657,5.41789250155447e-19,0.002264248272014223,3.9705197417096836e-17,0.021290827501666235,1.0588052644559156e-16,0.044896058632974224,2.1198027485805259e-16,0.07280441571568856,1.6120501763951067e-18,0.004207644702655015
8128,20,1946,True,5.212914500280116e-16,0.0,0.0,3.5829751850881774e-16,0.2794449347757804,0.23138451384810627,0.20191305905997217,0.029092501616942386,2.10047207309897e-18,0.004737985857179422,9.119159572215881e-17,0.032417891157878485,9.032674757690949e-17,0.034534193535632314,1.2191785717586401e-16,0.05079603920339962,7.056777154446054e-19,0.0018307169144062797
8128,20,1950,True,7.48120327596541e-16,2.0378670379686143e-16,0.0,3.550555075417289e-16,0.32403846248701046,0.23686098518656692,0.20627640490828994,0.026863015397296335,1.1864353017199525e-18,0.0029532015464781946,5.458682255306478e-17,0.03143404239447514,1.1170601182210855e-16,0.03883669814793246,1.870299078939701e-16,0.08682696394712432,1.4611711554216414e-18,0.0034614458423542684
8128,20,1958,True,8.027556303141617e-16,2.1966359855643986e-16,0.0,3.4668478224715186e-16,0.287416944176957,0.2249998640350279,0.19194618456171927,0.02858104708284112,8.679609392645958e-19,0.002660021501669604,2.799288270799887e-17,0.016048123089226665,5.554950011293413e-17,0.04252061985898264,1.8469188854956891e-16,0.09268063410614327,5.423805410858228e-19,0.0029515001108786324
8128,20,1961,True,7.195638587830623e-16,0.0,0.0,3.4640395768435156e-16,0.300296914765762,0.23555447499954094,0.19882682955905243,0.029865488854198177,2.1564178507755167e-18,0.0021467106208806143,4.27772132339091e-17,0.023006741202572713,1.147592907022337e-16,0.030700204325516768,1.7538994102331186e-16,0.06966049780842162,5.855825673690286e-19,0.0018233281100699021
8128,20,1972,True,6.377501873296902e-16,1.9381596278951821e-16,0.0,3.4943514249456105e-16,0.3112209907100881,0.24548683279111105,0.19204337296680643,0.03425162732003387,1.803318976211625e-18,0.009108614415659837,4.2294010526298067e-17,0.02030566883212314,9.165451088074648e-17,0.05087132240003643,2.551000749318762e-16,0.09356851667974618,7.160508662558319e-19,0.0022133294420425033
8128,20,1988,True,5.01480373813358e-16,1.9429165416972744e-16,0.0,3.498198846665842e-16,0.3067261410709356,0.16734756434410564,0.19533719649339432,0.02964803460367246,1.7815833897264342e-18,0.0021939821428576005,5.572271601145766e-17,0.023415675459153112,1.1144543202291532e-16,0.016653936538434923,2.1961773946128755e-16,0.08809810851197479,8.907916948632171e-19,0.0006127098487517232
8128,20,1993,True,6.449000377052016e-16,2.348347240209678e-16,0.0,3.595973840801272e-16,0.29588032298868855,0.23766415700960355,0.2000277235638347,0.025048735642871654,8.894353675917527e-19,0.002190734208914303,4.656779514916336e-17,0.023609544199157822,1.366172724620932e-16,0.028773063329612516,1.8215636328279092e-16,0.028887146859266463,1.390661946389199e-18,0.0016774633642802116
8128,20,1994,True,7.468513692773051e-16,2.0369437236589248e-16,0.0,3.412179222986111e-16,0.3192752194934959,0.26390587694716,0.20602815313742193,0.02942329791196839,1.7504328967436823e-18,0.002233530155374831,3.2226708862834957e-17,0.03136205512038815,4.8819160929991573e-17,0.03813653525906975,1.9336025317700973e-16,0.04208697431345045,5.395582914538981e-19,0.0038408282687214792
8128,20,1998,True,4.455986724064293e-16,2.0483854860466412e-16,0.0,3.5490218344301045e-16,0.31381971630653677,0.23058416148976935,0.20010702957925153,0.03287487586462434,1.7406198140876144e-18,0.0031865690922408207,2.438062533011572e-17,0.02876116285322255,8.963223897222142e-17,0.034726666333543,1.9504500264092576e-16,0.07760618991563642,1.992122609448485e-18,0.0020074883323684557
8128,20,2019,True,8.545287208862804e-16,1.5935563564874492e-16,0.0,3.652458750456007e-16,0.28661183618364205,0.2139259625831186,0.20169576332176317,0.02426424726904481,1.377946920368823e-18,0.0032194715689764825,4.308471081917162e-17,0.04573077832382203,1.0179253286505105e-16,0.03646160960075902,2.035850657301021e-16,0.06491982742890035,3.365993032747783e-19,0.0015005146289010373
8128,20,2039,True,7.201923824503578e-16,1.711329896010434e-16,0.0,3.45266585118653e-16,0.2986937338417294,0.23805177167770755,0.19833362033084742,0.02713669903970379,2.613784086772297e-19,0.0020963208556297485,2.872354716350754e-17,0.022948977386442766,8.857848129668308e-17,0.03104115386300778,1.3357546081246776e-16,0.055181983527157925,4.991350796964156e-19,0.0018261225701536416
8128,20,2045,True,4.417211513311114e-16,0.0,0.0,3.739928002217969e-16,0.31043465493319267,0.242844139245721,0.2023399729735347,0.023460670987800383,8.230559561065013e-19,0.0038699699639360716,5.1437807891831074e-17,0.029911224343835998,9.874019582434762e-17,0.04506677788524759,3.1800329867826527e-16,0.057178793572470396,1.1820744174889216e-18,0.0051344583409415325
8128,20,2050,True,3.48492702153947e-16,1.6634351513067389e-16,0.0,3.522577631759218e-16,0.361847420208198,0.2556667745868789,0.20219101938345105,0.02170415745354596,1.080279574780403e-18,0.003790688756309348,2.9041058512828913e-17,0.04006799647625121,8.486619226190476e-17,0.03154349173491336,2.2168317237269982e-16,0.07042691775939623,6.618609236029558e-19,0.0015368623962022697
8128,20,2055,True,5.618964936276174e-16,1.5016675208420276e-16,0.0,3.612462211121896e-16,0.32709475096609164,0.2516848796337905,0.20109731729358393,0.03280746480837963,9.185078033340696e-19,0.002397885894185108,8.428447404414261e-17,0.03902682308754964,5.837822077414426e-17,0.04457863246957498,2.0166437732557002e-16,0.04484439010931089,1.3976281655968723e-18,0.001375076257322585
8128,20,2064,True,3.605096389575174e-16,0.0,0.0,3.469014189964761e-16,0.2905132263772324,0.2534244549586173,0.20193157562604525,0.034369294093853704,4.467232418297211e-19,0.002703511951029912,4.939030198861402e-17,0.018675680838483116,7.624076660560573e-17,0.03402817743223694,2.0452712902119578e-16,0.0964373432621407,7.908157943005373e-19,0.0014991943208130006
8128,20,2083,True,8.106317849243591e-16,2.121299215240522e-16,0.0,3.453469886432507e-16,0.33009253646453696,0.2560473292244845,0.19250741887753167,0.03334507747955121,1.0103191036007056e-18,0.006165542166596771,4.84180479647729e-17,0.02289468960464842,4.890348751103208e-17,0.04605880553760171,3.0327435818816355e-16,0.05590417272693802,3.9742812953828683e-19,0.0012384915908437344
8128,20,2101,True,1.1966331235784814e-15,1.3850168451062193e-16,0.0,3.508838297196717e-16,0.29825777892233707,0.23899767657354717,0.19965065994119077,0.025178448273158575,9.75317715183513e-19,0.0025248312666134947,2.199439591164093e-17,0.03168064478668872,1.196633123578481e-16,0.049821505226827364,1.7961947746284265e-16,0.07492366257752715,6.096753462941186e-19,0.0014959224976536197
8128,20,2103,True,6.803642187705365e-16,1.894420622405083e-16,0.0,3.4619963207511646e-16,0.3083422823874481,0.25286076637029126,0.1936939828543622,0.02759170254019662,8.537818085526053e-19,0.0019018524816186069,3.6157035566453624e-17,0.03542277517603185,8.62009723494703e-17,0.03393410965890487,2.245126201637848e-16,0.025261059628423385,8.4443046808699e-19,0.0018891770541577873
8128,20,2104,True,6.744408504566005e-16,1.3689714281090343e-16,0.0,3.5658856792614414e-16,0.29727440974405905,0.2505390331812776,0.2031293733519871,0.02340934416752733,9.87950464536036e-19,0.003507629808688772,6.765641984671831e-17,0.025693677975322106,8.535625016614145e-17,0.03018693505853862,1.9248783910225688e-16,0.04165001702559615,3.0076224859727638e-18,0.0022022949385951617
8128,20,2110,True,5.566406726070005e-16,1.2577198434402403e-16,0.0,3.582055591031362e-16,0.32314014361777277,0.26797045022467153,0.20456346041491252,0.030160126864966278,1.13666937304147e-18,0.0037369366089542097,2.731128760545212e-17,0.03026841726702269,7.274683987465408e-17,0.04011241555557308,2.1780145327686016e-16,0.10319052966914449,1.6697016853861237e-18,0.00246681267545438
8128,20,2119,True,5.511434157230674e-16,2.9660821608364553e-16,0.0,3.4806030746900376e-16,0.2751884963701076,0.24209722789340563,0.194912067837952,0.035801868461509276,7.826530747836971e-19,0.0019827544809346486,2.4020229770612375e-17,0.03121650632839672,8.705673362751898e-17,0.02839570230381829,1.7317288813629549e-16,0.07000452808718766,1.0703180599251402e-18,0.002460241258538294
8128,20,2144,True,7.881941149994561e-16,1.8709048659367426e-16,0.0,3.60709809736933e-16,0.31063588280681914,0.23594214301105434,0.1930359090656361,0.026206374288424584,7.116887510764149e-19,0.0027304962466451212,4.6351451067477137e-17,0.03405713020272306,6.073077342518741e-17,0.029396190641533038,2.0823641427354902e-16,0.061811627533889565,8.016168142813954e-19,0.001648394323527129
8128,20,2146,True,7.969370765349579e-16,2.103304413947932e-16,0.0,3.3812030884279263e-16,0.3264874277211125,0.23901767625902265,0.19325091193600885,0.02895289490102214,1.2465397986066794e-18,0.0033315365415540333,5.495406018823715e-17,0.019473633822545588,7.327208025098286e-17,0.0541665700280308,2.1692839482246449e-16,0.10779170004780206,3.3594886927511315e-19,0.0019241625641831961
8128,20,2151,True,8.143282417155712e-16,2.0029174209438488e-16,0.0,3.441373918949142e-16,0.31820536019201495,0.2578132687573752,0.19348042509300545,0.02756200004079678,2.117225674766529e-18,0.0036850730916186264,4.213913729032707e-17,0.04675202669174047,8.882311871969737e-17,0.04216139968987717,1.6855654916130828e-16,0.04741787651759161,1.0408959224964537e-18,0.003278859938961192
8128,20,2153,True,4.545462107934409e-16,0.0,0.0,3.635263194775009e-16,0.33718985130390006,0.25768726371986833,0.20913256199752203,0.027439396500656604,4.438927839779693e-19,0.0019135789216393627,3.715941279955853e-17,0.04158905611632988,1.1064808334723912e-16,0.052716579480141613,2.522774852644651e-16,0.06154105754418763,6.330897209904408e-19,0.005044579153717628
8128,20,2158,True,5.221469577740136e-16,1.5418086167888298e-16,0.0,3.5720257518488676e-16,0.32992729346064753,0.255115825355232,0.20508511476502048,0.029360213695872172,7.908367686390676e-19,0.001699071165575789,6.668643454667701e-17,0.02123263253291124,1.0183392735008934e-16,0.04074014733505278,2.0256472822640592e-16,0.04972321519360729,5.209877698959141e-19,0.0009503365046427492
8128,20,2160,True,8.395807113964806e-16,1.3905877519301603e-16,0.0,3.4595125378015835e-16,0.29466423689672544,0.24655741735496953,0.19084896634985798,0.029276523561202483,2.0096865987547136e-18,0.002392406844180455,2.6218611615735928e-17,0.030557656282456064,7.107296220019966e-17,0.027500144810707297,2.0974889292588742e-16,0.057527976336398425,8.373694161477973e-20,0.002358971031974037
8128,20,2170,True,6.541722100451987e-16,1.5852416379893689e-16,0.0,3.492641194692778e-16,0.3282023760971586,0.27262287348912906,0.19670814373242532,0.02441102451740655,1.869181633295014e-18,0.0016231130325824784,4.2440645850138006e-17,0.01916027749394311,9.104720204825861e-17,0.028522971489104845,3.1904068620531367e-16,0.07079888574064336,1.703757938336404e-18,0.0029526580284950153
8128,20,2180,True,4.5651950838229375e-16,0.0,0.0,3.626409247831288e-16,0.3155578684067852,0.2527705513422661,0.19701793285814748,0.03237950307086056,9.36935944379872e-19,0.002789186389818938,4.4639927264847834e-17,0.024612431888465347,5.97038939531833e-17,0.05109139710728454,1.7828094496881984e-16,0.08741842837818324,1.4054039165698078e-18,0.005391083374242669
8128,20,2192,True,1.1202295748361048e-15,1.51908151604218e-16,0.0,3.471698618404416e-16,0.2921191533058221,0.23185410193991418,0.19674552263860973,0.026691260883979762,1.9093998839993047e-18,0.0011194640405309386,3.493178464257967e-17,0.05381414179502279,9.431228176345684e-17,0.04687552158142531,1.8871783328686855e-16,0.08443533251310736,2.2254105363201086e-18,0.001550556164983059
8128,20,2193,True,1.207251276118548e-15,2.44655757782695e-16,0.0,3.7176126740088497e-16,0.30349180255142694,0.22115584427580556,0.19655785169005646,0.028767847222210874,2.106011250406829e-18,0.0014920980755559947,2.877770524438571e-17,0.04001345476085188,6.739236001301853e-17,0.05887709980037888,2.0667988743382668e-16,0.06749079929138713,1.0821872982696338e-18,0.0028713068494539877
8128,20,2203,True,5.463369907346019e-16,1.2008103848709463e-16,0.0,3.425707637559164e-16,0.3168704455524823,0.24484154193939373,0.19716219971413101,0.029485978196356216,1.5774491164320734e-18,0.004138168425259848,3.322477659073133e-17,0.02974299531320356,6.644955318146266e-17,0.03214616466901666,1.1537913537331735e-16,0.045691653553996826,1.0382742684603541e-18,0.0014046922550994532
8128,20,2210,True,7.28591256350545e-16,1.1860300799884346e-16,0.0,3.4387857110605915e-16,0.27274289463009205,0.21225360912793795,0.19377799470799348,0.02795482203421745,1.39921345460437e-18,0.0030815339696065257,4.553695352190904e-17,0.024168157950553562,6.79161711198724e-17,0.05445224689346951,2.5622070517331434e-16,0.06137600134981344,1.903590333607029e-18,0.0009478929396300567
8128,20,2213,True,1.094619741546402e-15,1.5590202309617757e-16,0.0,3.4476137491558415e-16,0.2918008984610975,0.2158073821747815,0.19921801880805337,0.026271390105446955,9.126226669366521e-19,0.0038326789171998347,2.6374375427867415e-17,0.03323354449943959,6.899769239750382e-17,0.02223765774107921,1.0946197415464022e-16,0.03358682233136696,2.207978102039945e-18,0.0017529984725662222
8128,20,2221,True,9.194099037361108e-16,2.0206435056152074e-16,0.0,3.840637384021185e-16,0.284638407401701,0.2281635427371932,0.19723651813572216,0.027158222344763578,2.2725503624693978e-18,0.0024819058672206832,5.0969962582632015e-17,0.024923821302778693,1.0193992516526403e-16,0.0280325488239916,2.8199336706200136e-16,0.04663790974389477,1.436577974587672e-18,0.0019923977964454638
8128,20,2224,True,7.925676776416679e-16,1.8097358248396071e-16,0.0,3.6911608702502526e-16,0.29932146330089837,0.24127395720675854,0.21070748765270034,0.031853582230056465,1.85758049447266e-18,0.002871221435779579,4.1989788482912356e-17,0.015123014237813235,5.598638464388314e-17,0.05850589251728795,2.3665954205918923e-16,0.03679624543840706,1.9019085127361192e-18,0.0021335239425445906
8128,20,2226,True,3.9202162266662484e-16,1.7824951172110722e-16,0.0,3.5206675140147087e-16,0.2995142378903773,0.20592347041875622,0.1896565245535303,0.025157134885610482,8.691029532769984e-19,0.003909855719333566,3.8425881826579864e-17,0.02336063382164299,1.3067387422220827e-16,0.04478613276115115,1.9796006406454698e-16,0.05271448238416556,9.928487661418237e-19,0.0010793202257165665
8128,20,2235,True,7.626860062903633e-16,1.8438183217977929e-16,0.0,3.2767904781061695e-16,0.29117040516905857,0.2147368418210472,0.20412845148953435,0.026295560885621926,7.475944603459637e-19,0.0007441129399339137,3.7480410037984344e-17,0.022156049762904452,9.413888394832733e-17,0.019303748722682527,2.984095277730245e-16,0.07008469645276186,2.3864706601929734e-18,0.0024655782305047376
8128,20,2238,True,6.63820965474873e-16,0.0,0.0,3.5210527108689515e-16,0.299047183938467,0.2409969651269271,0.19013760763583598,0.029511474620353327,8.989875430952283e-19,0.002506097186814805,1.9063531135277466e-17,0.037764003911413185,1.0178555382953738e-16,0.062017519179694315,2.007160760729784e-16,0.04808620281126086,6.456031356884346e-19,0.00160313349461735
8128,20,2252,True,5.283454108840198e-16,1.6554243610230473e-16,0.0,3.596298689041384e-16,0.2943459833439908,0.2151894454626508,0.20271439314368242,0.032903055530137275,1.2915549748060042e-18,0.0025699511447169867,4.9532382270376855e-17,0.025302583988083074,6.727473452495086e-17,0.0351548852102128,1.3260665092317437e-16,0.04744762334864801,5.336265066761346e-19,0.001530425603649634
8128,20,2267,True,7.67272299574585e-16,2.0637870204369376e-16,0.0,3.681706439470805e-16,0.29408010179518,0.21489231598603722,0.20217524071717186,0.025088880410254377,1.3112563713432844e-18,0.0008990415941219762,6.905477882373272e-17,0.022351790309107215,9.590903744682309e-17,0.02257113507618842,2.8423130778174113e-16,0.0477459982592062,3.8124909660323816e-19,0.001301977097388507
8128,20,2270,True,7.427723350418619e-16,1.6006861831279818e-16,0.0,3.6820815756330284e-16,0.3521299360117864,0.2454431033905648,0.19066420507531215,0.02855918535082169,8.712671438638092e-19,0.004012215785778128,3.581320988291702e-17,0.0385621749968518,7.162641976583404e-17,0.03744421084085974,3.2213265846144487e-16,0.06655842439532175,2.704477993975894e-18,0.0017501452677598371
8128,20,2277,True,6.504471491061111e-16,2.0669566714553583e-16,0.0,3.524830824484721e-16,0.29222128860444435,0.24779921154771276,0.19615967707386933,0.02672992839965568,1.4743689193172791e-18,0.003316601733721327,2.4050966488896833e-17,0.029486525791311623,9.063515853627718e-17,0.03473905345768679,1.7250214756465928e-16,0.08070908058820608,2.0326473409565964e-18,0.0009831242321879157
8128,20,2279,True,7.135838213641797e-16,1.7981470686014064e-16,0.0,3.3222005695182395e-16,0.2928926479463579,0.22605082702894433,0.19945057510142586,0.031218160929960503,3.412883614446835e-18,0.004005214002739521,3.4500529758715475e-17,0.024371205407630207,1.218772710648687e-16,0.031863510137103486,1.431421027141579e-16,0.04456442851606241,1.0112592443988877e-18,0.0017767058252847892
8128,20,2281,True,1.0239539665869265e-15,1.9633534219992247e-16,0.0,3.3636268702540843e-16,0.2994665040166849,0.22277117243593064,0.20090621292053865,0.02447443113056403,7.945504611523298e-19,0.003777435972213017,3.3900819675832735e-17,0.038883472104149594,9.796269526821456e-17,0.05841623195407918,1.3180312262492066e-16,0.0583431420722173,9.999550454950445e-19,0.0023568046266467164
8128,20,2282,True,9.345910870479806e-16,1.1716540472656329e-16,0.0,3.440258101379187e-16,0.31424483117825547,0.2326707798566761,0.19715244227959397,0.026345719267523087,1.7123763894810397e-18,0.0039279580781657825,3.8941295293665864e-17,0.0356562453929285,4.6070752380577746e-17,0.05750445048028619,2.5730873007002937e-16,0.048594299910603544,1.0051122268360522e-18,0.002496098992449305
8128,20,2285,True,1.670823915380013e-15,1.3700859390291688e-16,0.0,3.5206073673701177e-16,0.34323837985469374,0.2180845222500729,0.19819250264545268,0.02353694426585209,1.9399906060146894e-18,0.01018769106682907,3.126805649111953e-17,0.017840614634475425,8.646123162250073e-17,0.03807431771255656,1.2823939137457235e-16,0.10046970762177175,9.24253742140858e-19,0.0025024539651875375
8128,20,2293,True,4.3297389860883655e-16,1.371479684412454e-16,0.0,3.3346925970831967e-16,0.29972779672791383,0.2304938502090443,0.2061887734301844,0.028686746775411977,8.876175775766293e-19,0.0020499267410187512,2.1177687759979e-17,0.03344187924912242,8.4710751039916e-17,0.05674133003760031,1.5816358513401678e-16,0.0566907767635902,1.4793626292943823e-18,0.0009664657336564737
8128,20,2302,True,6.404865127626231e-16,1.392166304524073e-16,0.0,3.538317121924973e-16,0.2739578373426747,0.22841214869641577,0.19471474354866442,0.026121462499984736,5.623438048182307e-19,0.0011508474578405146,2.4027857768383314e-17,0.025617865007023462,9.607297691439339e-17,0.04485884597074267,1.7420904379695554e-16,0.053113606095689284,5.642255352620171e-19,0.0006805771554831999
8128,20,2317,True,5.115599174203624e-16,0.0,0.0,3.534495180618706e-16,0.27547347554010154,0.20810011197558548,0.20255153680052254,0.02752372623051612,1.9803819626370494e-18,0.0012643714100518456,3.241889219463254e-17,0.02031212813269077,9.494421041065674e-17,0.03359797913995684,3.4099807285531357e-16,0.05034475219416025,2.1476441587818068e-18,0.0007581202538724013
8128,20,2322,True,6.640025049407024e-16,1.3669817667678086e-16,0.0,3.4033333786785436e-16,0.33041622603597387,0.22527142578758713,0.20336270985890212,0.02337317994594817,6.121825952790106e-19,0.0031629216107014932,2.983428194492517e-17,0.01814702621566904,8.65906531211952e-17,0.042016405511255135,1.8045371342502547e-16,0.06121447328358925,1.9317156531511213e-18,0.002367886232646538
8128,20,2324,True,8.078149689736773e-16,1.4501398531472046e-16,3.552713678800501e-15,3.653880470691409e-16,0.3203081150933818,0.2557106202623588,0.19766177628967216,0.029987543940017368,1.2045698330403748e-18,0.0030125949666767993,2.4548375764436843e-17,0.0316389748775349,1.0278995908611197e-16,0.047585672793006906,1.8675584755583351e-16,0.08894383240901024,1.803158412887673e-18,0.002116998743523004
8128,20,2341,True,9.89614844462101e-16,1.4632812393452822e-16,0.0,3.4763022211504914e-16,0.2980214752165386,0.225422910105235,0.200534978593542,0.0327822128918044,8.436615401696366e-19,0.0031619962825204335,3.482314274706008e-17,0.027599027494200064,1.0764577235545822e-16,0.04526575445168486,2.0703801782251806e-16,0.06373770792885572,2.7205580271140687e-19,0.0007844058252088437
8128,20,2345,True,6.30452142552066e-16,1.318041003914712e-16,0.0,3.518992619170772e-16,0.32775926272944256,0.25372058690320465,0.20046158558803973,0.026774233088530296,5.63926879804391e-19,0.0018798618610489717,3.911898892087565e-17,0.025139668247286102,4.867045700878265e-17,0.031697776943683045,1.509998387799301e-16,0.10080126739995651,1.1127583333047556e-18,0.002102589820141683
8128,20,2355,True,6.570989857726306e-16,1.7856865348719092e-16,0.0,3.4230055990811827e-16,0.3069331476692714,0.2574557647898518,0.2080146297504153,0.02603764619990232,5.888331691382961e-19,0.002987012518760853,3.590130462637715e-17,0.03024055824126294,7.53706456497019e-17,0.03133047336165298,2.4753151610593346e-16,0.057770494508901524,7.861345068000105e-19,0.0012350513844715894
8128,20,2368,True,7.953441674283543e-16,1.6586684946401156e-16,0.0,3.4614719463377056e-16,0.31742422796115904,0.2536751397695418,0.20348115669010824,0.038340546118758506,5.178021923361685e-18,0.005780136681318062,3.09755462876545e-17,0.04034032283093462,8.706089512119766e-17,0.0557827592859647,1.7370105423541486e-16,0.08185274864927823,1.0079854937378709e-18,0.003821616435603512
8128,20,2369,True,7.920948611831042e-16,1.3101682493165362e-16,0.0,3.4191560713266006e-16,0.31935686205655306,0.2587675596046685,0.2029383641735617,0.03431720256981984,3.5350803426914135e-18,0.003656813880126456,3.7488702110079767e-17,0.022430801930825542,9.431883688197249e-17,0.0502450469091963,2.9397258630658953e-16,0.059340736534402146,1.5150344325820343e-18,0.0022548958465651316
8128,20,2370,True,8.008598185230942e-16,2.123308472665143e-16,0.0,3.414081298372975e-16,0.31287246219696535,0.19598571993598313,0.19618864633326244,0.024356416140038317,1.2218258288862163e-18,0.0012966084340337782,5.180738050341181e-17,0.01276741626312011,6.673831821025784e-17,0.037041495576236066,2.88817356723741e-16,0.03880151594998016,2.4436516577724327e-18,0.0018829890061536128
8128,20,2375,True,1.0375938641552902e-15,0.0,0.0,3.5379019856355375e-16,0.2998097428268851,0.25080501053176407,0.21420585021551977,0.031932934857898145,1.5124813463193734e-18,0.005437663346287495,4.4093497577118e-17,0.021491489711572352,5.0865843457542106e-17,0.04012548757627068,2.593984660388223e-16,0.07049822392673195,7.289755190131958e-19,0.002242867287320598
8128,20,2379,True,7.464097761827663e-16,2.089495257949651e-16,0.0,3.6703373949065124e-16,0.3366433770592121,0.24338979881471995,0.20284880498799734,0.026311416577651264,3.631525446490676e-18,0.003338198696689487,4.349851289343678e-17,0.02284049081392678,8.191046613886608e-17,0.046244135578777476,2.455018823020916e-16,0.05906930678698983,7.263050892981352e-19,0.002273453000420466
8128,20,2381,True,7.744977108441698e-16,2.0734816024005069e-16,0.0,3.405146897783906e-16,0.31208620899575445,0.25857348119359824,0.19731272220870963,0.027195983825678546,7.899827114298726e-19,0.0015478312659442436,3.407642709619242e-17,0.031183837294170846,9.268346481487565e-17,0.03792970234835504,1.359829422847125e-16,0.05192176087050687,5.266551409532484e-19,0.0012545853478814763
8128,20,2386,True,7.505009137771123e-16,1.176243714960486e-16,0.0,3.2821855560600946e-16,0.2705690284560893,0.2067421126429187,0.19854618778621713,0.025717420465192726,9.247481715203706e-19,0.0010457802416045188,4.6906307111069535e-17,0.017932480452830607,3.42621290596739e-17,0.020609769939545206,2.753968774894441e-16,0.06932065144287361,4.008051370772874e-19,0.0019439110291527663
8128,20,2387,True,5.255628416536061e-16,2.0377789060382115e-16,0.0,3.4464704817144416e-16,0.34199170828864717,0.22999728006497602,0.18948660628547984,0.02639307961068811,1.4610461344918694e-18,0.0021186093835695104,2.701931705960014e-17,0.040202061185580444,9.911336096703595e-17,0.04195581898755152,1.6642162018176615e-16,0.08655166221450146,8.243480666573095e-19,0.0037445104876830723
8128,20,2390,True,6.407057675565058e-16,1.5560327579093727e-16,0.0,3.3855490164003675e-16,0.3046567008646647,0.23363811430057815,0.1909716897607467,0.027416037836676264,2.171076138789618e-18,0.004444375668725297,3.82821434192384e-17,0.013790827658096326,9.401750438941144e-17,0.03488381835947034,1.6262318983118262e-16,0.06014669117583013,4.896745020281846e-19,0.0011248262063915983
8128,20,2403,True,5.194106561629709e-16,1.962603750817063e-16,0.0,3.637886225480918e-16,0.284147471788797,0.23827646021428192,0.19621286678709574,0.026799798363714294,7.284779238071435e-19,0.0014377125114814588,4.3367564413709655e-17,0.024000069047485733,8.621638443292936e-17,0.05780542987883731,1.3019668635738715e-16,0.11498208869142333,2.3519962733037132e-18,0.0014283611823414266
8128,20,2409,True,8.703878171804064e-16,1.7507915409336234e-16,0.0,3.7119511893839703e-16,0.3047707006827477,0.2160081182488814,0.1975050533316012,0.027170698429229503,1.1512965794194527e-18,0.00180956840246623,9.106512386231164e-17,0.029418620514545996,1.1810215608485721e-16,0.04643883088038374,1.6741214345266898e-16,0.02974931839016647,5.392481805696157e-19,0.000792020333436569
8128,20,2416,True,6.455471970934473e-16,1.2851683687559334e-16,0.0,3.4866888827774064e-16,0.3087044616487257,0.23292329473290407,0.19381095313658775,0.03032108650531089,5.933316771687666e-19,0.0037107228367178305,2.10014798380556e-17,0.04129673952062406,5.379559975778727e-17,0.039141365456889496,1.6406449784351875e-16,0.06209952376986828,2.444877343819583e-18,0.0016945192448870375
8128,20,2417,True,7.612321572948255e-16,1.620773076455857e-16,0.0,3.5018347183762127e-16,0.3203823414392133,0.21903833126153835,0.20657479180822122,0.02693379189322453,1.4224861560482773e-18,0.003802693099079799,2.5438670546207213e-17,0.025631396004121284,6.59182078456164e-17,0.0322871576312189,1.318364156912328e-16,0.06990178855082839,7.724789981908172e-19,0.0015898450581448697
