epoch,train_loss,val_loss,val_macro_auroc,val_macro_ap,val_macro_f1_at_0p5,clean_count,clean_fraction,independent_count,independent_fraction,electrode_count,electrode_fraction,snr_20_count,snr_10_count,combo_RA_LA_LL_count,combo_V1_count,combo_V2_count,combo_V3_count,combo_V4_count,combo_V5_count,combo_V6_count,combo_RA_LA_count,combo_LA_LL_count,combo_RA_LL_count,actual_snr_db_count,actual_snr_db_mean,actual_snr_db_std,actual_snr_db_min,actual_snr_db_max,actual_snr_error_db_count,actual_snr_error_db_mean,actual_snr_error_db_std,actual_snr_error_db_min,actual_snr_error_db_max,rms_match_relative_error_count,rms_match_relative_error_mean,rms_match_relative_error_std,rms_match_relative_error_min,rms_match_relative_error_max,exposure_count,unique_records,exposure_min,exposure_max,order_sha256,epoch_seconds,elapsed_seconds
1,0.3534431970808886,0.3192991577679047,0.90005466715022,0.767783342232879,0.6705233973549645,8557,0.5008780145165067,0,0.0,8527,0.49912198548349335,4284,4243,2106,705,732,753,724,732,702,690,706,677,8527,15.024041234635604,4.999942097530914,10.000000001003631,19.99999990540757,8527,-4.6002370377507294e-08,1.0461752361619813e-07,-2.068856055359447e-07,1.1984136705223136e-07,0,,,,,17084,17084,1,1,6f1993399597817707f8a6b450062b2ac9dfbae97e3c26fdbafa3876f3c71b9f,64.13655199995264,64.19035930000246
2,0.2981267441173148,0.31868348264405355,0.9023422974587956,0.7685513430500205,0.661733114812908,8609,0.5039217981737298,0,0.0,8475,0.4960782018262702,4228,4247,2123,702,715,706,714,718,691,711,698,697,8475,14.98879051513723,4.999987330897764,10.000000006045699,19.999999909982037,8475,-4.533474514036005e-08,1.0473019750823725e-07,-2.0079917106841094e-07,1.1541161981654113e-07,0,,,,,17084,17084,1,1,fbd58fae15581851333b2214e431e4c878b08718e1fb3a217b594860e952daf6,64.34865339996759,128.71943110006396
3,0.278048227847083,0.3473701717302495,0.9057408512746274,0.7732792108523187,0.6752213477980467,8566,0.5014048232264107,0,0.0,8518,0.49859517677358933,4279,4239,2123,701,748,663,729,733,696,729,714,682,8518,15.023479644067839,4.999944766388204,9.999999996506046,19.999999907024254,8518,-4.6000252086647536e-08,1.0454412742718371e-07,-2.137868833074208e-07,1.2701496565625803e-07,0,,,,,17084,17084,1,1,ad67e97da31c6c6e8d53390b7c91f1e4d7043ce88f71d312e20617a99f4c028d,64.59894319996238,193.50890710006934
4,0.26690582902781496,0.31208102242588887,0.9112260041334513,0.7829308723019419,0.6837965219152518,8471,0.4958440646218684,0,0.0,8613,0.5041559353781316,4347,4266,2180,680,721,685,706,705,756,722,741,717,8613,15.047021897255693,4.999778784762006,10.000000007610563,19.99999990770998,8613,-4.631797620008913e-08,1.0482161743800076e-07,-2.1273390871101583e-07,1.3131747955696937e-07,0,,,,,17084,17084,1,1,c142015265109bf3115a5aa0f57e38dc3fab483d906ce00cc06a64cef26d8520,64.62214450002648,258.3667734999908
5,0.25807114191452757,0.31500630232072385,0.9095568786864419,0.7812706180759253,0.6844034747744681,8600,0.5033949894638258,0,0.0,8484,0.4966050105361742,4278,4206,2150,753,693,687,695,695,710,702,724,675,8484,15.042432768408927,4.999819838325064,10.000000004116355,19.999999909081193,8484,-4.630111526473261e-08,1.0486163241406535e-07,-2.0785584453619776e-07,1.1235367836093246e-07,0,,,,,17084,17084,1,1,dade26ffcc8a2911f46ab1e4d268ba84ddb9b1c58115b0808cdb5dc759a968f2,64.69494549999945,323.24016730010044
6,0.24644523650386857,0.32022314052768436,0.9071898990568545,0.7754429473178837,0.6874983843920658,8487,0.49678061343947555,0,0.0,8597,0.5032193865605245,4293,4304,2127,718,710,752,743,710,733,690,721,693,8597,14.993602373917586,4.9999958032336025,10.000000004578386,19.99999991520038,8597,-4.5531059557781e-08,1.0467843166918593e-07,-2.0674688983035594e-07,1.2255862102961146e-07,0,,,,,17084,17084,1,1,467dd47a25244e09706bde8ac41065cc546707cb4f27da0ad6133713ad558b08,64.67982439999469,388.07540850003716
7,0.23619862624756544,0.31419798951224537,0.9087633908541571,0.7821765587412187,0.6928876353308409,8554,0.5007024116132054,0,0.0,8530,0.49929758838679467,4312,4218,2117,723,698,700,709,727,710,694,683,769,8530,15.055099601587516,4.999696289732863,10.00000000380733,19.999999916625647,8530,-4.6712602228999455e-08,1.0472863108846536e-07,-2.0153838065084528e-07,1.1682664080581162e-07,0,,,,,17084,17084,1,1,9b1e3ba6fb1ffb38c9d8671f19590bb288d9a441da139fd6b1bf23228f78f504,64.48491300002206,452.72032190009486
8,0.2302126382928742,0.307138769318873,0.9129802510771773,0.7881047777859063,0.6862090439472122,8397,0.4915125263404355,0,0.0,8687,0.5084874736595645,4354,4333,2170,704,725,765,728,750,714,701,704,726,8687,15.012086980865268,4.999985286376189,9.999999991235782,19.999999897766763,8687,-4.572618893900803e-08,1.0475622824574215e-07,-2.0995444316440626e-07,1.1227083263065651e-07,0,,,,,17084,17084,1,1,75468ff6879ce64a6a157dc434c08871dd4de7635c12c2ce1f1b2ad2f4075bd5,66.11257940006908,518.9773097001016
9,0.22079389331436247,0.32258746716760633,0.9095104456400447,0.7844146040269372,0.6985605104314507,8453,0.4947904472020604,0,0.0,8631,0.5052095527979396,4335,4296,2110,725,734,744,716,695,718,708,742,739,8631,15.022592932967195,4.999948851394272,10.00000000346154,19.999999901150673,8631,-4.5830163898834474e-08,1.0486930887790251e-07,-2.088409836176197e-07,1.1781018116607811e-07,0,,,,,17084,17084,1,1,10fb885a96964f2e8bd2b999aae630737767628593af55893ce76b666480277d,64.77004450000823,583.9134456000756
10,0.20840029739448768,0.3250632069150866,0.9074310972188477,0.7785007226761659,0.710651976708531,8544,0.5001170686022008,0,0.0,8540,0.4998829313977991,4273,4267,2183,686,662,699,675,731,726,760,692,726,8540,15.003512835081114,4.999998662068528,10.000000001407914,19.999999905485794,8540,-4.548094569143048e-08,1.0466919923350499e-07,-2.1294543017802425e-07,1.2544716199158756e-07,0,,,,,17084,17084,1,1,c43fa8848e27a9dad9600a8851c9d51e9dcfa0822f675e9318c3128612db87e3,64.66811219998635,648.7469964000629
11,0.20117518138659415,0.3409890920229305,0.9042525342049771,0.7721703426301592,0.703886134709365,8478,0.49625380472957153,0,0.0,8606,0.5037461952704285,4327,4279,2156,755,727,699,724,702,693,716,714,720,8606,15.027887474258751,4.999922124050697,10.00000000094474,19.999999912517453,8606,-4.607589865470376e-08,1.047796685301201e-07,-2.138019468134189e-07,1.0925746707357575e-07,0,,,,,17084,17084,1,1,88a93b5ea0353976849c43c2a4ba4065642222ecd9d1b6e666b96292fc431050,64.71060990006663,713.6119836000726
12,0.1853613705140761,0.3774155313626473,0.9036564843571975,0.7701419072411764,0.6909503022109014,8523,0.49888784827909155,0,0.0,8561,0.5011121517209085,4224,4337,2164,713,712,673,743,665,752,731,695,713,8561,14.93400299280852,4.99956431708047,10.00000000162101,19.999999909253432,8561,-4.421986405842052e-08,1.0483898524809178e-07,-2.122175501995116e-07,1.2287298289948012e-07,0,,,,,17084,17084,1,1,9a2566e82306804b6e2ffe90b184ce2e448f968914d1fea2eaf4e4c564dac89a,64.56780260009691,778.3426152000902
13,0.17689203170026335,0.3762332945923214,0.8992489229535059,0.7627415333045408,0.6906422177730838,8496,0.49730742214937956,0,0.0,8588,0.5026925778506205,4294,4294,2143,712,720,752,741,745,677,676,707,715,8588,14.999999954491086,4.999999896201757,10.00000000242606,19.999999904928107,8588,-4.550891272271711e-08,1.0460791042969878e-07,-2.1737357513984534e-07,1.1444396719184624e-07,0,,,,,17084,17084,1,1,92692ad88ef42c9e5f3a2c7913adec10ff5438cb0395745bd6c625bc60786d80,64.46213210001588,842.9588927000295
14,0.1648387185752992,0.3986775949527922,0.9017231020836214,0.7621687810078945,0.6795377564160889,8555,0.5007609459143058,0,0.0,8529,0.4992390540856942,4369,4160,2115,713,696,714,707,743,723,713,683,722,8529,15.12252310823484,4.998498478398178,10.000000000182297,19.999999907440746,8529,-4.8055461640244836e-08,1.0459902016101778e-07,-2.0443907544631656e-07,1.1078128814290267e-07,0,,,,,17084,17084,1,1,105d3d5f15549c0cd36e10ae45564914a52819ec203428c987ac248251dbc7f5,64.36030259996187,907.4538368000649
15,0.15340261565867197,0.4220243843492791,0.9025268550883281,0.772193854948054,0.6780387202013101,8594,0.5030437836572231,0,0.0,8490,0.49695621634277687,4287,4203,2068,720,747,709,676,696,716,749,676,733,8490,15.049469918008095,4.999755162536437,10.00000000550751,19.999999904879463,8490,-4.665621791907538e-08,1.0452743633566349e-07,-2.0229301611607298e-07,1.1173772307415675e-07,0,,,,,17084,17084,1,1,ddc24e28ad6aa32902fbbfd441e2478c7e93ced1ab24d38ba5813ebadee6b93e,64.30799250002019,971.9082135000499
16,0.13419225676065025,0.46332904907552747,0.895521587030708,0.7554180769055084,0.6662765155944719,8466,0.4955513931163662,0,0.0,8618,0.5044486068836338,4365,4253,2137,686,726,744,750,702,735,750,673,715,8618,15.0649802270528,4.999577634480681,9.999999996460012,19.99999990454866,8618,-4.679263749625818e-08,1.0487109861272207e-07,-2.0524663923993103e-07,1.1203624517008848e-07,0,,,,,17084,17084,1,1,9be9542dce39f234d820137f04ca88f7f0b4916612013e203fdd74523e3f65f9,64.36176779994275,1036.4254682000028
17,0.12998430463684943,0.4171840319373512,0.8964021245852981,0.7543307408075053,0.6799184769819617,8565,0.5013462889253102,0,0.0,8519,0.49865371107468975,4186,4333,2186,698,672,677,700,743,751,698,711,683,8519,14.91372222397917,4.999255456124974,10.000000001163212,19.999999916542915,8519,-4.389264700152252e-08,1.04545712043375e-07,-2.0539928868856805e-07,1.1672650757077463e-07,0,,,,,17084,17084,1,1,cf554178a4615bbb57c6eefb7f59daa3184384bad36a2f1fd667aa755d3fc4ba,64.45323960005771,1101.0189682000782
18,0.12038765219765256,0.44997463796812026,0.8972113937235594,0.7540216178908855,0.6642496296186133,8511,0.4981854366658862,0,0.0,8573,0.5018145633341138,4320,4253,2071,732,693,723,760,768,733,704,704,685,8573,15.039076123348872,4.999847199204626,9.999999997510995,19.999999900810288,8573,-4.602007659814478e-08,1.0455169036086596e-07,-2.0388668886539563e-07,1.1184144810272301e-07,0,,,,,17084,17084,1,1,ac4ebf86deb53cbd4adf2c35d414c5ab2849f307ac6c63e658323171fce69778,65.96719040011521,1167.1707120999927
19,0.10352611766434251,0.4716330632247996,0.8939125757269819,0.7547666118150156,0.6803987821315938,8648,0.5062046359166471,0,0.0,8436,0.49379536408335284,4200,4236,2127,737,703,721,687,675,682,708,650,746,8436,14.978662828090023,4.999954368691381,10.000000002561972,19.99999990585959,8436,-4.5309693923569744e-08,1.0460230262490954e-07,-2.0884111151531215e-07,1.1654570641894679e-07,0,,,,,17084,17084,1,1,c1e923e91119c96023f2b69364f32fe61fb4b3e80c616ee0efebf311aa364560,64.46889789996203,1231.780826900038
20,0.10139910550973394,0.4790167940185099,0.8891423767169467,0.7421094563283316,0.6711307630211462,8479,0.49631233903067196,0,0.0,8605,0.503687660969328,4262,4343,2135,726,699,705,728,689,697,735,704,787,8605,14.952934295985235,4.9997783735716155,9.999999996272713,19.999999909371557,8605,-4.4514474736916106e-08,1.0466641167267675e-07,-2.0545817847050785e-07,1.186283409282396e-07,0,,,,,17084,17084,1,1,ee31aee25f2b1c26c1c38f354cde4d50069246c94fcab21a905f4df51b031fb6,64.55354370002169,1296.4810356000671
21,0.09361010007656198,0.5311627089699517,0.8865699130580611,0.7399366925922931,0.6612136713061394,8555,0.5007609459143058,0,0.0,8529,0.4992390540856942,4250,4279,2087,731,700,731,698,702,695,696,739,750,8529,14.982999134254355,4.9999709932411776,9.999999996451589,19.99999991230363,8529,-4.5016369171207e-08,1.0466969462096287e-07,-2.066429090064048e-07,1.1383150777533046e-07,0,,,,,17084,17084,1,1,acf4c49a4cae1768a4890c163868ad8a191fb0a924d12219668a47b9f1dc6476,64.88361210003495,1361.5206155000487
22,0.08337914559042055,0.5586914239869647,0.8854733288449076,0.7372585171451111,0.6789045657819825,8532,0.49941465698899556,0,0.0,8552,0.5005853430110044,4271,4281,2147,749,671,696,727,701,741,666,733,721,8552,14.994153369103383,4.999996477737399,9.999999997299355,19.99999990851351,8552,-4.530260464882062e-08,1.0480948509083834e-07,-2.1132686356395425e-07,1.1803211030780858e-07,0,,,,,17084,17084,1,1,d57decce2fa88526404db66f8a95dff32836224840a9f3648a3500ee7f63811f,64.44557840004563,1426.1189515000442
23,0.07836534536797558,0.5633843928881038,0.8881727408676511,0.7388773123088367,0.6557190517926699,8667,0.5073167876375556,0,0.0,8417,0.4926832123624444,4242,4175,2029,691,668,723,772,743,667,728,709,687,8417,15.039800357416196,4.999841486393217,10.000000000379705,19.999999906417283,8417,-4.652820308151205e-08,1.0468667646801907e-07,-2.0802655953389149e-07,1.1472780236942981e-07,0,,,,,17084,17084,1,1,7f97f395137fd2168a25f3a8b38ac482541dec9f5fa6e78846172fdba5ad6e86,65.76195840002038,1492.0272622000193
24,0.07059856113268827,0.5636901404406574,0.8875207884132934,0.7378805190905339,0.674425590675269,8509,0.4980683680636853,0,0.0,8575,0.5019316319363146,4383,4192,2196,694,696,726,741,675,705,710,731,701,8575,15.111370214473157,4.998759408872093,10.000000004127635,19.99999990689676,8575,-4.7917515236990594e-08,1.0450402279594907e-07,-2.0482573503954882e-07,1.1394261889563495e-07,0,,,,,17084,17084,1,1,ee85b07b6819981e3f591abe13bb24b9540aca52521645a0f2dba87a0f4093a5,64.62851959990803,1556.8378351000138
25,0.06336536240316727,0.6088544471399426,0.8902680882368188,0.7451860860758127,0.6784576238053799,8506,0.497892765160384,0,0.0,8578,0.5021072348396161,4356,4222,2186,709,735,692,725,706,711,710,720,684,8578,15.078106737865607,4.999389791763352,9.999999998576344,19.999999908445943,8578,-4.6932713891798717e-08,1.0483023680933956e-07,-2.1421870144422428e-07,1.1177454339872384e-07,0,,,,,17084,17084,1,1,89fc5ecdbe365bbd4d89fb8ec7996917b7b55d11c1a66a82d19a87d4ec5a19bb,64.50787670002319,1621.4803526999895
