condition,mode,snr_db,noise_seed,metric,n_rows,n_records,n_patients,n_noise_bases,n_finite,n_null,n_positive_inf,n_negative_inf,n_anomalous,unit,min,p05,p25,median,p75,p95,max,mean,sd
E,,0,101,snr_p_db,2158,2158,1877,1,2158,0,0,0,0,dB,-5.1705377664814644e-05,-1.3306010298393471e-05,-7.556927973683881e-06,-5.1982251483702235e-06,-3.3953441966286604e-06,-1.3452163112944238e-06,-1.1723075358121818e-07,-5.93334480964493e-06,3.863619369510943e-06
E,,0,101,delta_p_db,2158,2158,1877,1,2158,0,0,0,0,dB,-5.170726790994568e-05,-1.3305949313992626e-05,-7.558975571244441e-06,-5.200119276138702e-06,-3.3961333953701933e-06,-1.3439958190678502e-06,-1.0837244799367052e-07,-5.933388757770453e-06,3.8636230323334195e-06
E,,0,101,actual_total_snr_db,2158,2158,1877,1,2158,0,0,0,0,dB,-1.7627676132268e-08,-9.12505386997351e-09,-3.690866223808799e-09,1.0275294886990226e-10,3.764045897981757e-09,8.848486228673045e-09,1.8536439457029172e-08,4.393904287275446e-11,5.4916981382506275e-09
E,,0,101,q_clean,2158,2158,1877,1,2158,0,0,0,0,fraction,2.4953678499437863e-08,3.094664264734455e-07,7.81988307767661e-07,1.1973709964185677e-06,1.7405169328016194e-06,3.06380336100274e-06,1.1905967552934596e-05,1.3662119222710647e-06,8.896300041519708e-07
E,,0,101,q_noise,2158,2158,1877,1,2158,0,0,0,0,fraction,4.612627863965421e-16,5.227103077073967e-16,5.69853350374672e-16,6.115981119072021e-16,6.569066924256378e-16,7.495359137115725e-16,9.22829228890115e-16,6.187195400921171e-16,6.898305807119978e-17
E,,0,202,snr_p_db,2158,2158,1877,1,2158,0,0,0,0,dB,-5.1718712414097856e-05,-1.330691233827726e-05,-7.562950436776248e-06,-5.204723997622262e-06,-3.3958195284729814e-06,-1.3406519541545572e-06,-1.1263817186571368e-07,-5.933366878292335e-06,3.863498441807292e-06
E,,0,202,delta_p_db,2158,2158,1877,1,2158,0,0,0,0,dB,-5.170726790994568e-05,-1.3305949313992626e-05,-7.558975571244441e-06,-5.200119276138702e-06,-3.3961333953701933e-06,-1.3439958190678502e-06,-1.0837244799367052e-07,-5.933388757781178e-06,3.863623032334898e-06
E,,0,202,actual_total_snr_db,2158,2158,1877,1,2158,0,0,0,0,dB,-1.6825721639188196e-08,-8.94717279560546e-09,-3.626332706447093e-09,-1.1507223225786282e-10,3.713957282920902e-09,9.056378065004485e-09,1.8848780300464095e-08,2.1870681742759396e-11,5.38555121325103e-09
E,,0,202,q_clean,2158,2158,1877,1,2158,0,0,0,0,fraction,2.4953678499437863e-08,3.094664264734455e-07,7.81988307767661e-07,1.1973709964185677e-06,1.7405169328016194e-06,3.06380336100274e-06,1.1905967552934596e-05,1.3662119222710647e-06,8.896300041519708e-07
E,,0,202,q_noise,2158,2158,1877,1,2158,0,0,0,0,fraction,4.611720196231616e-16,5.214350721180062e-16,5.688073825045054e-16,6.0918180270727985e-16,6.58996856474585e-16,7.439082811796734e-16,9.359276680999297e-16,6.182218684112695e-16,6.859911559306985e-17
E,,0,303,snr_p_db,2158,2158,1877,1,2158,0,0,0,0,dB,-5.170857596195683e-05,-1.3300724025095328e-05,-7.561087259570032e-06,-5.204456815671509e-06,-3.391808025657995e-06,-1.3454162731427993e-06,-1.1554115489962713e-07,-5.933305808771013e-06,3.8636117582847185e-06
E,,0,303,delta_p_db,2158,2158,1877,1,2158,0,0,0,0,dB,-5.170726790994568e-05,-1.3305949313992626e-05,-7.558975571244441e-06,-5.200119276138702e-06,-3.3961333953701933e-06,-1.3439958194053651e-06,-1.0837244751150677e-07,-5.933388757777379e-06,3.863623032332425e-06
E,,0,303,actual_total_snr_db,2158,2158,1877,1,2158,0,0,0,0,dB,-2.0396969081553673e-08,-8.924720383263687e-09,-3.7031362059627345e-09,1.8916777963603346e-10,3.793829392842205e-09,8.92452610115571e-09,2.0284947403966542e-08,8.294003714070866e-11,5.593217763855338e-09
E,,0,303,q_clean,2158,2158,1877,1,2158,0,0,0,0,fraction,2.4953678499437863e-08,3.094664264734455e-07,7.81988307767661e-07,1.1973709964185677e-06,1.7405169328016194e-06,3.06380336100274e-06,1.1905967552934596e-05,1.3662119222710647e-06,8.896300041519708e-07
E,,0,303,q_noise,2158,2158,1877,1,2158,0,0,0,0,fraction,4.510720781465344e-16,5.230107417183994e-16,5.704426943267686e-16,6.108001409275272e-16,6.609428551862306e-16,7.450262518873109e-16,9.149671039389114e-16,6.194579017761644e-16,6.942216403038896e-17
E,,0,404,snr_p_db,2158,2158,1877,1,2158,0,0,0,0,dB,-5.168863612402317e-05,-1.330091971240487e-05,-7.557852827173885e-06,-5.201014661772436e-06,-3.394377216505105e-06,-1.33825718501538e-06,-1.0746476702860238e-07,-5.933356758307316e-06,3.8636007948937585e-06
E,,0,404,delta_p_db,2158,2158,1877,1,2158,0,0,0,0,dB,-5.170726790994568e-05,-1.3305949313992626e-05,-7.558975571244441e-06,-5.200119276138702e-06,-3.39613339500857e-06,-1.3439958194053651e-06,-1.0837244799367052e-07,-5.933388757777603e-06,3.863623032335329e-06
E,,0,404,actual_total_snr_db,2158,2158,1877,1,2158,0,0,0,0,dB,-1.9949026435001913e-08,-9.229894154083916e-09,-3.701828939539788e-09,1.3071555241679698e-10,3.829919348246287e-09,8.72057783376812e-09,1.8631774798619606e-08,3.1990632760516305e-11,5.499878019619891e-09
E,,0,404,q_clean,2158,2158,1877,1,2158,0,0,0,0,fraction,2.4953678499437863e-08,3.094664264734455e-07,7.81988307767661e-07,1.1973709964185677e-06,1.7405169328016194e-06,3.06380336100274e-06,1.1905967552934596e-05,1.3662119222710647e-06,8.896300041519708e-07
E,,0,404,q_noise,2158,2158,1877,1,2158,0,0,0,0,fraction,4.627893466790326e-16,5.2404186541064e-16,5.703311679086769e-16,6.102713816576672e-16,6.571097688213309e-16,7.496764992960772e-16,8.94204828755989e-16,6.190717353857653e-16,6.872567631625119e-17
E,,0,505,snr_p_db,2158,2158,1877,1,2158,0,0,0,0,dB,-5.1708685787626624e-05,-1.3313274124864983e-05,-7.5623575033314265e-06,-5.203505653755454e-06,-3.394388397168219e-06,-1.3519281840900454e-06,-9.924787328236077e-08,-5.933412586453806e-06,3.863589123495851e-06
E,,0,505,delta_p_db,2158,2158,1877,1,2158,0,0,0,0,dB,-5.170726790994568e-05,-1.3305949313992626e-05,-7.558975571244441e-06,-5.20011927589762e-06,-3.3961333953701933e-06,-1.3439958194776897e-06,-1.0837244799367052e-07,-5.933388757774251e-06,3.863623032329453e-06
E,,0,505,actual_total_snr_db,2158,2158,1877,1,2158,0,0,0,0,dB,-1.6921018408458172e-08,-9.004155725400211e-09,-3.670590515561751e-09,-2.6738389828864555e-12,3.5721112219203002e-09,8.721470608134882e-09,1.680748035571419e-08,-2.3837506933185695e-11,5.4112182349174945e-09
E,,0,505,q_clean,2158,2158,1877,1,2158,0,0,0,0,fraction,2.4953678499437863e-08,3.094664264734455e-07,7.81988307767661e-07,1.1973709964185677e-06,1.7405169328016194e-06,3.06380336100274e-06,1.1905967552934596e-05,1.3662119222710647e-06,8.896300041519708e-07
E,,0,505,q_noise,2158,2158,1877,1,2158,0,0,0,0,fraction,4.6585870718519675e-16,5.215800275405825e-16,5.700838208882596e-16,6.110804474344107e-16,6.581973853628882e-16,7.452251379004997e-16,9.672573704302628e-16,6.189962406363235e-16,6.943904380661122e-17
E,,0,8128,snr_p_db,2158,2158,1877,1,2158,0,0,0,0,dB,-5.170426427571086e-05,-1.3305889058721947e-05,-7.5604236632163666e-06,-5.203689050250437e-06,-3.3948968483835584e-06,-1.343471715944184e-06,-1.1653370440033611e-07,-5.933592127696753e-06,3.863792540755431e-06
E,,0,8128,delta_p_db,2158,2158,1877,1,2158,0,0,0,0,dB,-5.170726790994568e-05,-1.3305949313582785e-05,-7.558975570882818e-06,-5.200119276138702e-06,-3.39613339500857e-06,-1.3439958189955257e-06,-1.0837244799367052e-07,-5.933388757782072e-06,3.8636230323279765e-06
E,,0,8128,actual_total_snr_db,2158,2158,1877,1,2158,0,0,0,0,dB,-1.863354875893458e-08,-9.359470064580011e-09,-3.6974957340651257e-09,-1.7314258580442787e-10,3.4266737643505878e-09,8.463864122972131e-09,1.8147458688488388e-08,-2.0337884407801224e-10,5.4143097724629085e-09
E,,0,8128,q_clean,2158,2158,1877,1,2158,0,0,0,0,fraction,2.4953678499437863e-08,3.094664264734455e-07,7.81988307767661e-07,1.1973709964185677e-06,1.7405169328016194e-06,3.06380336100274e-06,1.1905967552934596e-05,1.3662119222710647e-06,8.896300041519708e-07
E,,0,8128,q_noise,2158,2158,1877,1,2158,0,0,0,0,fraction,4.524859606422407e-16,5.218270888132501e-16,5.697184017681971e-16,6.081998285756236e-16,6.579882050273478e-16,7.469858512664667e-16,9.221570854893175e-16,6.184417593330739e-16,6.950330234298348e-17
E,,5,101,snr_p_db,2158,2158,1877,1,2158,0,0,0,0,dB,4.999948186528066,4.9999865959234215,4.999992332860671,4.9999946883636355,4.999996498904571,4.999998541778671,4.999999780596444,4.999993954695469,3.863644125379873e-06
E,,5,101,delta_p_db,2158,2158,1877,1,2158,0,0,0,0,dB,-5.170726790753483e-05,-1.330594931199164e-05,-7.558975568471995e-06,-5.200119274451126e-06,-3.3961333935620774e-06,-1.343995818031198e-06,-1.0837244702934303e-07,-5.933388755635568e-06,3.863623032192581e-06
E,,5,101,actual_total_snr_db,2158,2158,1877,1,2158,0,0,0,0,dB,4.9999998640767815,4.999999876277706,4.999999883148204,4.999999887975265,4.9999998932539995,4.999999899682439,4.999999911311842,4.999999888084223,7.142313263720538e-09
E,,5,101,q_clean,2158,2158,1877,1,2158,0,0,0,0,fraction,2.4953678499437863e-08,3.094664264734455e-07,7.81988307767661e-07,1.1973709964185677e-06,1.7405169328016194e-06,3.06380336100274e-06,1.1905967552934596e-05,1.3662119222710647e-06,8.896300041519708e-07
E,,5,101,q_noise,2158,2158,1877,1,2158,0,0,0,0,fraction,7.0308350170569195e-16,8.54916524524193e-16,9.667969120955402e-16,1.081782162611083e-15,1.21921089729336e-15,1.47149817310901e-15,1.9608586040068627e-15,1.1116434419117157e-15,1.9508499780460636e-16
E,,5,202,snr_p_db,2158,2158,1877,1,2158,0,0,0,0,dB,4.999948185882589,4.999986586497904,4.999992338905984,4.999994687311235,4.999996499916987,4.999998543449253,4.999999783532535,4.999993954503427,3.86363881340744e-06
E,,5,202,delta_p_db,2158,2158,1877,1,2158,0,0,0,0,dB,-5.170726790753483e-05,-1.3305949312329155e-05,-7.558975568110372e-06,-5.2001192742100445e-06,-3.3961333935620774e-06,-1.343995818031198e-06,-1.0837244654717928e-07,-5.933388755636908e-06,3.863623032199795e-06
E,,5,202,actual_total_snr_db,2158,2158,1877,1,2158,0,0,0,0,dB,4.999999861600957,4.999999876505454,4.999999883348075,4.9999998878027085,4.999999892373449,4.999999899933013,4.999999912247134,4.999999887892182,7.071605022073272e-09
E,,5,202,q_clean,2158,2158,1877,1,2158,0,0,0,0,fraction,2.4953678499437863e-08,3.094664264734455e-07,7.81988307767661e-07,1.1973709964185677e-06,1.7405169328016194e-06,3.06380336100274e-06,1.1905967552934596e-05,1.3662119222710647e-06,8.896300041519708e-07
E,,5,202,q_noise,2158,2158,1877,1,2158,0,0,0,0,fraction,7.221115599086647e-16,8.515403106438559e-16,9.760103892934293e-16,1.0846346487145663e-15,1.2196285985915781e-15,1.4683106779515624e-15,1.978496884136974e-15,1.1113510989197855e-15,1.9176518155127893e-16
E,,5,303,snr_p_db,2158,2158,1877,1,2158,0,0,0,0,dB,4.999948177486246,4.9999865901472305,4.999992328714716,4.999994688425478,4.999996491783129,4.9999985438743995,4.999999788948878,4.999993954808875,3.863591013983567e-06
E,,5,303,delta_p_db,2158,2158,1877,1,2158,0,0,0,0,dB,-5.170726790753483e-05,-1.330594931199164e-05,-7.558975568471995e-06,-5.2001192742100445e-06,-3.3961333935620774e-06,-1.343995818031198e-06,-1.0837244654717928e-07,-5.933388755637579e-06,3.863623032200523e-06
E,,5,303,actual_total_snr_db,2158,2158,1877,1,2158,0,0,0,0,dB,4.9999998635151535,4.999999876042217,4.999999883478277,4.999999888365792,4.9999998933127365,4.99999989971069,4.999999911165163,4.99999988819763,7.199582592675835e-09
E,,5,303,q_clean,2158,2158,1877,1,2158,0,0,0,0,fraction,2.4953678499437863e-08,3.094664264734455e-07,7.81988307767661e-07,1.1973709964185677e-06,1.7405169328016194e-06,3.06380336100274e-06,1.1905967552934596e-05,1.3662119222710647e-06,8.896300041519708e-07
E,,5,303,q_noise,2158,2158,1877,1,2158,0,0,0,0,fraction,7.087521760605618e-16,8.495591359340384e-16,9.771398374566016e-16,1.0786277267229471e-15,1.2133454252140745e-15,1.4663830930539661e-15,1.911629486429608e-15,1.1113537756442975e-15,1.9035377132189354e-16
E,,5,404,snr_p_db,2158,2158,1877,1,2158,0,0,0,0,dB,4.99994819388941,4.9999865822648575,4.999992328754308,4.999994679939018,4.999996498637361,4.9999985393246,4.999999787525023,4.999993954700057,3.863790749394963e-06
E,,5,404,delta_p_db,2158,2158,1877,1,2158,0,0,0,0,dB,-5.170726790753483e-05,-1.330594931199164e-05,-7.55897556895416e-06,-5.200119273968963e-06,-3.3961333935620774e-06,-1.343995818031198e-06,-1.0837244654717928e-07,-5.933388755625738e-06,3.863623032201673e-06
E,,5,404,actual_total_snr_db,2158,2158,1877,1,2158,0,0,0,0,dB,4.999999865779748,4.999999876119267,4.999999882991494,4.999999887982531,4.99999989319213,4.99999990048769,4.999999914293577,4.999999888088811,7.353880134742904e-09
E,,5,404,q_clean,2158,2158,1877,1,2158,0,0,0,0,fraction,2.4953678499437863e-08,3.094664264734455e-07,7.81988307767661e-07,1.1973709964185677e-06,1.7405169328016194e-06,3.06380336100274e-06,1.1905967552934596e-05,1.3662119222710647e-06,8.896300041519708e-07
E,,5,404,q_noise,2158,2158,1877,1,2158,0,0,0,0,fraction,7.156619248491984e-16,8.505672940170103e-16,9.742242560481726e-16,1.088073850241405e-15,1.2201389247061848e-15,1.473311951531657e-15,2.005464358358936e-15,1.1134442798113826e-15,1.9470531593429066e-16
E,,5,505,snr_p_db,2158,2158,1877,1,2158,0,0,0,0,dB,4.9999481845199165,4.999986585500594,4.999992336265678,4.999994687495379,4.99999649694273,4.999998539448288,4.99999978458257,4.9999939546497245,3.863501456030196e-06
E,,5,505,delta_p_db,2158,2158,1877,1,2158,0,0,0,0,dB,-5.170726790753483e-05,-1.3305949312329155e-05,-7.558975568471995e-06,-5.2001192742100445e-06,-3.3961333935620774e-06,-1.343995818031198e-06,-1.0837244654717928e-07,-5.933388755629759e-06,3.863623032198687e-06
E,,5,505,actual_total_snr_db,2158,2158,1877,1,2158,0,0,0,0,dB,4.999999863507702,4.999999876115204,4.9999998832394015,4.999999888009418,4.999999892969606,4.999999899610104,4.999999910262159,4.999999888038478,7.166962324977301e-09
E,,5,505,q_clean,2158,2158,1877,1,2158,0,0,0,0,fraction,2.4953678499437863e-08,3.094664264734455e-07,7.81988307767661e-07,1.1973709964185677e-06,1.7405169328016194e-06,3.06380336100274e-06,1.1905967552934596e-05,1.3662119222710647e-06,8.896300041519708e-07
E,,5,505,q_noise,2158,2158,1877,1,2158,0,0,0,0,fraction,7.095739718770753e-16,8.491707674981865e-16,9.757981027541851e-16,1.081634473481312e-15,1.214649242593477e-15,1.486904201926967e-15,2.0352312620960148e-15,1.1121617008733826e-15,1.940992419661716e-16
E,,5,8128,snr_p_db,2158,2158,1877,1,2158,0,0,0,0,dB,4.999948174945751,4.999986579040002,4.999992331707763,4.999994687539978,4.999996496320864,4.999998542557085,4.999999774941231,4.999993954667473,3.863896992225496e-06
E,,5,8128,delta_p_db,2158,2158,1877,1,2158,0,0,0,0,dB,-5.170726790753483e-05,-1.330594931199164e-05,-7.558975568471995e-06,-5.200119274451126e-06,-3.3961333935620774e-06,-1.3439958176213585e-06,-1.0837244654717928e-07,-5.933388755632663e-06,3.863623032195267e-06
E,,5,8128,actual_total_snr_db,2158,2158,1877,1,2158,0,0,0,0,dB,4.999999856376079,4.999999875790969,4.999999883272189,4.999999888103524,4.999999892966943,4.999999900463668,4.999999913248053,4.999999888056227,7.47444308612997e-09
E,,5,8128,q_clean,2158,2158,1877,1,2158,0,0,0,0,fraction,2.4953678499437863e-08,3.094664264734455e-07,7.81988307767661e-07,1.1973709964185677e-06,1.7405169328016194e-06,3.06380336100274e-06,1.1905967552934596e-05,1.3662119222710647e-06,8.896300041519708e-07
E,,5,8128,q_noise,2158,2158,1877,1,2158,0,0,0,0,fraction,6.750835955539508e-16,8.491966611319279e-16,9.725778273938999e-16,1.0845924071355491e-15,1.2242041923981084e-15,1.4675565158319248e-15,1.994594718199696e-15,1.112140024400387e-15,1.924412764551278e-16
E,,10,101,snr_p_db,2158,2158,1877,1,2158,0,0,0,0,dB,9.999948360489467,9.999986756351701,9.999992505475825,9.999994864658426,9.999996668474923,9.999998709780145,9.999999955334966,9.999994124971884,3.863648388289133e-06
E,,10,101,delta_p_db,2158,2158,1877,1,2158,0,0,0,0,dB,-5.170726790415964e-05,-1.3305949309701356e-05,-7.558975563891432e-06,-5.200119272040304e-06,-3.3961333915128802e-06,-1.343995817549034e-06,-1.0837244654717928e-07,-5.933388752379506e-06,3.863623031810058e-06
E,,10,101,actual_total_snr_db,2158,2158,1877,1,2158,0,0,0,0,dB,10.000000027171367,10.000000043242885,10.00000005242495,10.000000058626267,10.000000064270072,10.000000073048703,10.000000092836633,10.000000058360648,9.012451189569434e-09
E,,10,101,q_clean,2158,2158,1877,1,2158,0,0,0,0,fraction,2.4953678499437863e-08,3.094664264734455e-07,7.81988307767661e-07,1.1973709964185677e-06,1.7405169328016194e-06,3.06380336100274e-06,1.1905967552934596e-05,1.3662119222710647e-06,8.896300041519708e-07
E,,10,101,q_noise,2158,2158,1877,1,2158,0,0,0,0,fraction,7.880766881569696e-16,1.1040298416862659e-15,1.4531357828127579e-15,1.769582464678466e-15,2.1829722215097075e-15,2.925693352033463e-15,4.437124563684778e-15,1.8606781427678585e-15,5.717577217672456e-16
E,,10,202,snr_p_db,2158,2158,1877,1,2158,0,0,0,0,dB,9.99994834482213,9.999986750780067,9.999992494627252,9.999994857387982,9.999996664897528,9.999998724197479,9.99999994104625,9.999994125221427,3.8637459344370825e-06
E,,10,202,delta_p_db,2158,2158,1877,1,2158,0,0,0,0,dB,-5.170726790415964e-05,-1.3305949310038871e-05,-7.5589755635298085e-06,-5.200119272281387e-06,-3.396133391030716e-06,-1.3439958176213585e-06,-1.0837244654717928e-07,-5.933388752386656e-06,3.863623031809983e-06
E,,10,202,actual_total_snr_db,2158,2158,1877,1,2158,0,0,0,0,dB,10.000000030648993,10.000000043482611,10.000000052597565,10.000000058385313,10.000000064874246,10.000000073828815,10.000000087487631,10.000000058610194,9.147070901149761e-09
E,,10,202,q_clean,2158,2158,1877,1,2158,0,0,0,0,fraction,2.4953678499437863e-08,3.094664264734455e-07,7.81988307767661e-07,1.1973709964185677e-06,1.7405169328016194e-06,3.06380336100274e-06,1.1905967552934596e-05,1.3662119222710647e-06,8.896300041519708e-07
E,,10,202,q_noise,2158,2158,1877,1,2158,0,0,0,0,fraction,7.898890215638966e-16,1.1047499834597036e-15,1.4419650130158304e-15,1.777554302779437e-15,2.1695088202231335e-15,2.9417977289893956e-15,4.574487933548124e-15,1.8601941111736578e-15,5.735114851728679e-16
E,,10,303,snr_p_db,2158,2158,1877,1,2158,0,0,0,0,dB,9.999948351665672,9.999986748950707,9.999992491735513,9.999994857709687,9.999996669807125,9.999998707252784,9.999999961097613,9.999994125005852,3.863358339730593e-06
E,,10,303,delta_p_db,2158,2158,1877,1,2158,0,0,0,0,dB,-5.1707267903677485e-05,-1.3305949309629031e-05,-7.558975563409267e-06,-5.200119272281387e-06,-3.396133391030716e-06,-1.343995817549034e-06,-1.0837244654717928e-07,-5.933388752392911e-06,3.86362303179514e-06
E,,10,303,actual_total_snr_db,2158,2158,1877,1,2158,0,0,0,0,dB,10.000000026299317,10.000000042984816,10.000000052548957,10.000000058676873,10.000000064504626,10.0000000732113,10.000000085620634,10.000000058394617,9.073704309404196e-09
E,,10,303,q_clean,2158,2158,1877,1,2158,0,0,0,0,fraction,2.4953678499437863e-08,3.094664264734455e-07,7.81988307767661e-07,1.1973709964185677e-06,1.7405169328016194e-06,3.06380336100274e-06,1.1905967552934596e-05,1.3662119222710647e-06,8.896300041519708e-07
E,,10,303,q_noise,2158,2158,1877,1,2158,0,0,0,0,fraction,7.799057626525441e-16,1.1051438148424063e-15,1.4530985082495024e-15,1.774858376963049e-15,2.1598397192714527e-15,2.940844457164384e-15,4.316964001297717e-15,1.8592131660006633e-15,5.676121904549224e-16
E,,10,404,snr_p_db,2158,2158,1877,1,2158,0,0,0,0,dB,9.999948353258526,9.99998675914385,9.999992502354331,9.999994857260006,9.999996661206191,9.999998718059981,9.999999942682775,9.999994124733904,3.863587610781369e-06
E,,10,404,delta_p_db,2158,2158,1877,1,2158,0,0,0,0,dB,-5.1707267905123987e-05,-1.3305949309291516e-05,-7.5589755635298085e-06,-5.200119272040304e-06,-3.3961333913923394e-06,-1.3439958171391948e-06,-1.0837244654717928e-07,-5.9333887523734734e-06,3.863623031822508e-06
E,,10,404,actual_total_snr_db,2158,2158,1877,1,2158,0,0,0,0,dB,10.00000002584435,10.000000043796152,10.000000052083525,10.000000057839348,10.0000000640212,10.00000007372129,10.000000086694396,10.00000005812267,9.032978077240538e-09
E,,10,404,q_clean,2158,2158,1877,1,2158,0,0,0,0,fraction,2.4953678499437863e-08,3.094664264734455e-07,7.81988307767661e-07,1.1973709964185677e-06,1.7405169328016194e-06,3.06380336100274e-06,1.1905967552934596e-05,1.3662119222710647e-06,8.896300041519708e-07
E,,10,404,q_noise,2158,2158,1877,1,2158,0,0,0,0,fraction,7.698426956492469e-16,1.0925787068549434e-15,1.448506243321468e-15,1.7796893822535812e-15,2.1585003527488085e-15,2.9615581401094922e-15,4.456342087473424e-15,1.8614564718126974e-15,5.735610310562224e-16
E,,10,505,snr_p_db,2158,2158,1877,1,2158,0,0,0,0,dB,9.999948367830715,9.999986747247611,9.999992498790629,9.999994853133616,9.999996665449256,9.999998723527163,9.999999948083143,9.999994125226726,3.863762336408926e-06
E,,10,505,delta_p_db,2158,2158,1877,1,2158,0,0,0,0,dB,-5.1707267903677485e-05,-1.330594930977368e-05,-7.558975562324396e-06,-5.200119271799223e-06,-3.396133391030716e-06,-1.343995817549034e-06,-1.0837244654717928e-07,-5.933388752383304e-06,3.863623031804653e-06
E,,10,505,actual_total_snr_db,2158,2158,1877,1,2158,0,0,0,0,dB,10.00000002750447,10.000000044151497,10.000000052427124,10.000000058313487,10.000000064670182,10.000000073226348,10.000000095244957,10.00000005861549,9.020590001555262e-09
E,,10,505,q_clean,2158,2158,1877,1,2158,0,0,0,0,fraction,2.4953678499437863e-08,3.094664264734455e-07,7.81988307767661e-07,1.1973709964185677e-06,1.7405169328016194e-06,3.06380336100274e-06,1.1905967552934596e-05,1.3662119222710647e-06,8.896300041519708e-07
E,,10,505,q_noise,2158,2158,1877,1,2158,0,0,0,0,fraction,7.824955068405828e-16,1.0922964827124766e-15,1.4568132268980773e-15,1.7750915102004357e-15,2.1631308067708113e-15,2.9514493406854917e-15,4.457447578844301e-15,1.8612331414951635e-15,5.712550081383733e-16
E,,10,8128,snr_p_db,2158,2158,1877,1,2158,0,0,0,0,dB,9.999948370871296,9.999986748749018,9.9999924913038,9.999994852996725,9.999996666386384,9.999998706108899,9.999999956664002,9.999994125266651,3.863534949051081e-06
E,,10,8128,delta_p_db,2158,2158,1877,1,2158,0,0,0,0,dB,-5.170726790415964e-05,-1.3305949309701356e-05,-7.558975563770891e-06,-5.200119272040304e-06,-3.396133390910175e-06,-1.3439958170668702e-06,-1.0837244654717928e-07,-5.933388752391571e-06,3.863623031801149e-06
E,,10,8128,actual_total_snr_db,2158,2158,1877,1,2158,0,0,0,0,dB,10.000000028727955,10.000000044019709,10.000000052609796,10.000000058612915,10.000000064675552,10.000000073497334,10.000000086424048,10.000000058655415,8.954409574663264e-09
E,,10,8128,q_clean,2158,2158,1877,1,2158,0,0,0,0,fraction,2.4953678499437863e-08,3.094664264734455e-07,7.81988307767661e-07,1.1973709964185677e-06,1.7405169328016194e-06,3.06380336100274e-06,1.1905967552934596e-05,1.3662119222710647e-06,8.896300041519708e-07
E,,10,8128,q_noise,2158,2158,1877,1,2158,0,0,0,0,fraction,7.807578057038725e-16,1.1098878679296325e-15,1.4428505778539168e-15,1.7756146133894867e-15,2.1634998473534286e-15,2.92665836981616e-15,5.052729370014466e-15,1.8589475187770735e-15,5.687518428651271e-16
I,,0,101,snr_p_db,2158,2158,1877,1,2158,0,0,0,0,dB,1.8458936479861587,1.9391560846765095,1.9982974364308632,2.039227165719325,2.0794867368931174,2.134992646678573,2.256579287891636,2.039019860759711,0.05909128941625391
I,,0,101,delta_p_db,2158,2158,1877,1,2158,0,0,0,0,dB,1.8458936461691042,1.9391560790798001,1.9982974363888455,2.039227168911399,2.079486740398884,2.13499264740085,2.256579287393202,2.039019860592298,0.05909128959224478
I,,0,101,actual_total_snr_db,2158,2158,1877,1,2158,0,0,0,0,dB,-2.1670931496185204e-08,-9.149272303425903e-09,-3.4399027728737477e-09,3.0068984031796857e-10,3.882884552135962e-09,9.2032112899578e-09,1.692736651021794e-08,1.6738983449564073e-10,5.5287796292021155e-09
I,,0,101,q_clean,2158,2158,1877,1,2158,0,0,0,0,fraction,2.4953678499437863e-08,3.094664264734455e-07,7.81988307767661e-07,1.1973709964185677e-06,1.7405169328016194e-06,3.06380336100274e-06,1.1905967552934596e-05,1.3662119222710647e-06,8.896300041519708e-07
I,,0,101,q_noise,2158,2158,1877,1,2158,0,0,0,0,fraction,0.3462521400766386,0.36014190616352526,0.36879557957331044,0.3747178844847796,0.38048636542664105,0.38835429941848276,0.4052409348791606,0.37462918735659334,0.008511030013087124
I,,0,202,snr_p_db,2158,2158,1877,1,2158,0,0,0,0,dB,1.8476995093155675,1.9413050147764797,1.9979530898932556,2.0365780314050825,2.0810261234611915,2.136638768933571,2.247085975276546,2.038285114358299,0.06002921127483003
I,,0,202,delta_p_db,2158,2158,1877,1,2158,0,0,0,0,dB,1.8476995055450254,1.941305009754595,1.997953091862769,2.0365780306603,2.0810261313708405,2.1366387704992924,2.247085982341357,2.0382851144808822,0.06002921114596157
I,,0,202,actual_total_snr_db,2158,2158,1877,1,2158,0,0,0,0,dB,-1.95886114535557e-08,-9.572457649219357e-09,-3.764191032527912e-09,-1.2960681691602927e-10,3.541783605285771e-09,8.745688053051967e-09,1.8332682850176148e-08,-1.2260642437296375e-10,5.51745314702611e-09
I,,0,202,q_clean,2158,2158,1877,1,2158,0,0,0,0,fraction,2.4953678499437863e-08,3.094664264734455e-07,7.81988307767661e-07,1.1973709964185677e-06,1.7405169328016194e-06,3.06380336100274e-06,1.1905967552934596e-05,1.3662119222710647e-06,8.896300041519708e-07
I,,0,202,q_noise,2158,2158,1877,1,2158,0,0,0,0,fraction,0.34652439165746346,0.36045805252526264,0.3687460974495143,0.3743351007651345,0.3807057948015065,0.3885855005196359,0.40393914806251635,0.37452154470884413,0.00864339003925693
I,,0,303,snr_p_db,2158,2158,1877,1,2158,0,0,0,0,dB,1.858450085683099,1.9340804510324545,1.9951832216114216,2.037190997357149,2.077674600100171,2.1373899239720373,2.2327501263976597,2.0365470354259783,0.06163203531471801
I,,0,303,delta_p_db,2158,2158,1877,1,2158,0,0,0,0,dB,1.8584500920212825,1.9340804538791614,1.9951832152670015,2.037190999790244,2.0776745940933727,2.1373899252589275,2.2327501300679553,2.0365470355920268,0.06163203542204169
I,,0,303,actual_total_snr_db,2158,2158,1877,1,2158,0,0,0,0,dB,-1.8534612617752718e-08,-9.00343110563215e-09,-3.967283580424943e-09,-2.5319478395308304e-10,3.795900768238544e-09,8.659997673463886e-09,2.0889631831984737e-08,-1.6607120729347583e-10,5.531664257704662e-09
I,,0,303,q_clean,2158,2158,1877,1,2158,0,0,0,0,fraction,2.4953678499437863e-08,3.094664264734455e-07,7.81988307767661e-07,1.1973709964185677e-06,1.7405169328016194e-06,3.06380336100274e-06,1.1905967552934596e-05,1.3662119222710647e-06,8.896300041519708e-07
I,,0,303,q_noise,2158,2158,1877,1,2158,0,0,0,0,fraction,0.3481394357243511,0.35939304781495957,0.36834331708048784,0.37442437618708724,0.38022789026456427,0.3886912752596349,0.4019684023859139,0.37426792559669686,0.008881008765815919
I,,0,404,snr_p_db,2158,2158,1877,1,2158,0,0,0,0,dB,1.7865219894229811,1.9369072813113488,1.9975077802912136,2.0372050378005335,2.0789151561480765,2.14201300289004,2.248789048652861,2.038285992472652,0.06119702860927122
I,,0,404,delta_p_db,2158,2158,1877,1,2158,0,0,0,0,dB,1.7865219917075572,1.936907276927056,1.997507783767975,2.0372050382762366,2.078915160726816,2.142013007358261,2.2487890459540836,2.0382859925129244,0.061197028550416935
I,,0,404,actual_total_snr_db,2158,2158,1877,1,2158,0,0,0,0,dB,-2.1244168855917236e-08,-9.228085798998411e-09,-3.870172670391136e-09,-1.099928784095356e-10,3.5295127793657375e-09,9.103292692586943e-09,1.9892326299412808e-08,-4.029586635016349e-11,5.589455899951646e-09
I,,0,404,q_clean,2158,2158,1877,1,2158,0,0,0,0,fraction,2.4953678499437863e-08,3.094664264734455e-07,7.81988307767661e-07,1.1973709964185677e-06,1.7405169328016194e-06,3.06380336100274e-06,1.1905967552934596e-05,1.3662119222710647e-06,8.896300041519708e-07
I,,0,404,q_noise,2158,2158,1877,1,2158,0,0,0,0,fraction,0.3372542414396308,0.35981048880657945,0.3686810810983582,0.3744255051272128,0.3804050538221151,0.3893415486794005,0.40417248432754826,0.3745193366437458,0.008809278817419412
I,,0,505,snr_p_db,2158,2158,1877,1,2158,0,0,0,0,dB,1.8622128163821738,1.9367213891588908,1.992569130899636,2.0354851603846056,2.0788799671394287,2.1374707396682613,2.2394034295946987,2.0361529328585273,0.061751266124744277
I,,0,505,delta_p_db,2158,2158,1877,1,2158,0,0,0,0,dB,1.8622128086278165,1.9367213883458683,1.9925691351751325,2.0354851613496185,2.0788799630759884,2.1374707326841094,2.239403424619515,2.0361529328955736,0.06175126618128797
I,,0,505,actual_total_snr_db,2158,2158,1877,1,2158,0,0,0,0,dB,-1.8852538366423e-08,-9.059650022882488e-09,-3.659363935727606e-09,-3.876596415552182e-12,3.6058858270809513e-09,8.97354238401588e-09,2.1826681362883316e-08,-3.707047309405558e-11,5.531948735808762e-09
I,,0,505,q_clean,2158,2158,1877,1,2158,0,0,0,0,fraction,2.4953678499437863e-08,3.094664264734455e-07,7.81988307767661e-07,1.1973709964185677e-06,1.7405169328016194e-06,3.06380336100274e-06,1.1905967552934596e-05,1.3662119222710647e-06,8.896300041519708e-07
I,,0,505,q_noise,2158,2158,1877,1,2158,0,0,0,0,fraction,0.3487043823142079,0.3597829750283136,0.36796327375914617,0.3741778905061073,0.3803996117616344,0.38870292553963326,0.40288335630186456,0.3742109205639801,0.008893981328546957
I,,0,8128,snr_p_db,2158,2158,1877,1,2158,0,0,0,0,dB,1.8456754348229896,1.937215959394124,1.9957873607337033,2.0354750053545994,2.0773162828750835,2.1383276625259984,2.230612938276909,2.036759703110012,0.06055518785627778
I,,0,8128,delta_p_db,2158,2158,1877,1,2158,0,0,0,0,dB,1.8456754317580417,1.9372159603558106,1.995787360366122,2.0354750009028626,2.0773162866184145,2.138327668233614,2.2306129427897163,2.036759703034084,0.06055518809980059
I,,0,8128,actual_total_snr_db,2158,2158,1877,1,2158,0,0,0,0,dB,-1.893458816927164e-08,-8.76642318454056e-09,-3.733311820531023e-09,-8.816701377666434e-11,3.901381799419064e-09,9.29162570175685e-09,1.9041862766612438e-08,7.590526020382109e-11,5.436886867629963e-09
I,,0,8128,q_clean,2158,2158,1877,1,2158,0,0,0,0,fraction,2.4953678499437863e-08,3.094664264734455e-07,7.81988307767661e-07,1.1973709964185677e-06,1.7405169328016194e-06,3.06380336100274e-06,1.1905967552934596e-05,1.3662119222710647e-06,8.896300041519708e-07
I,,0,8128,q_noise,2158,2158,1877,1,2158,0,0,0,0,fraction,0.34622078714689597,0.35985590949944557,0.3684311489148296,0.37417626517279134,0.3801765412295413,0.38882388140624563,0.40167365975082503,0.3743007734352041,0.00871986732544731
I,,5,101,snr_p_db,2158,2158,1877,1,2158,0,0,0,0,dB,6.845893540904918,6.939155965346965,6.998297328806061,7.039227058776438,7.079486630447512,7.134992528640438,7.256579170398243,7.039019748800312,0.059091289228812426
I,,5,101,delta_p_db,2158,2158,1877,1,2158,0,0,0,0,dB,1.8458936487579438,1.9391560867640865,1.9982974434758647,2.039227171617351,2.0794867443494365,2.1349926415865643,2.2565792875689574,2.0390198606370764,0.059091289479199914
I,,5,101,actual_total_snr_db,2158,2158,1877,1,2158,0,0,0,0,dB,4.9999998633912375,4.999999876398704,4.999999883187948,4.999999888165633,4.999999893217652,4.999999899802318,4.999999914007407,4.9999998881632175,7.181357296073693e-09
I,,5,101,q_clean,2158,2158,1877,1,2158,0,0,0,0,fraction,2.4953678499437863e-08,3.094664264734455e-07,7.81988307767661e-07,1.1973709964185677e-06,1.7405169328016194e-06,3.06380336100274e-06,1.1905967552934596e-05,1.3662119222710647e-06,8.896300041519708e-07
I,,5,101,q_noise,2158,2158,1877,1,2158,0,0,0,0,fraction,0.34625214046633934,0.36014190729566975,0.36879558060336326,0.37471788487437335,0.3804863659901663,0.3883542985995901,0.40524093490322993,0.374629187363261,0.008511029997068837
I,,5,202,snr_p_db,2158,2158,1877,1,2158,0,0,0,0,dB,6.847699382743649,6.941304900089327,6.997952978910291,7.0365779169204,7.081026009812077,7.136638662389362,7.247085868743128,7.038285002817128,0.06002921126868335
I,,5,202,delta_p_db,2158,2158,1877,1,2158,0,0,0,0,dB,1.84769950858969,1.9413050076540732,1.9979530928975047,2.0365780306343804,2.0810261265625507,2.1366387728816094,2.2470859849140545,2.038285114515594,0.06002921112635866
I,,5,202,actual_total_snr_db,2158,2158,1877,1,2158,0,0,0,0,dB,4.999999862382328,4.999999876341768,4.99999988330341,4.999999888491263,4.999999893301988,4.999999900328047,4.999999912918907,4.999999888301517,7.353056920802513e-09
I,,5,202,q_clean,2158,2158,1877,1,2158,0,0,0,0,fraction,2.4953678499437863e-08,3.094664264734455e-07,7.81988307767661e-07,1.1973709964185677e-06,1.7405169328016194e-06,3.06380336100274e-06,1.1905967552934596e-05,1.3662119222710647e-06,8.896300041519708e-07
I,,5,202,q_noise,2158,2158,1877,1,2158,0,0,0,0,fraction,0.34652439211558894,0.3604580522159415,0.3687460975999146,0.3743351007614012,0.3807057950849616,0.3885855008550306,0.4039391484156141,0.37452154471388205,0.008643390036457308
I,,5,303,snr_p_db,2158,2158,1877,1,2158,0,0,0,0,dB,6.858449978832242,6.934080344897534,6.995183103051493,7.037190883142773,7.077674479632323,7.137389816969317,7.232750030499766,7.036546923691387,0.061632035553780135
I,,5,303,delta_p_db,2158,2158,1877,1,2158,0,0,0,0,dB,1.858450093521384,1.9340804550162851,1.9951832131149714,2.0371909981765977,2.0776745932505802,2.1373899308741495,2.232750139362565,2.036547035514153,0.06163203548435198
I,,5,303,actual_total_snr_db,2158,2158,1877,1,2158,0,0,0,0,dB,4.999999866492364,4.999999876481475,4.999999883531988,4.999999888329976,4.999999892866952,4.999999900118208,4.999999910857942,4.999999888177217,7.039561756854734e-09
I,,5,303,q_clean,2158,2158,1877,1,2158,0,0,0,0,fraction,2.4953678499437863e-08,3.094664264734455e-07,7.81988307767661e-07,1.1973709964185677e-06,1.7405169328016194e-06,3.06380336100274e-06,1.1905967552934596e-05,1.3662119222710647e-06,8.896300041519708e-07
I,,5,303,q_noise,2158,2158,1877,1,2158,0,0,0,0,fraction,0.3481394359495109,0.35939304798269006,0.3683433167674861,0.37442437595465095,0.38022789014428304,0.38869127605004705,0.401968403665799,0.3742679255853505,0.008881008774757736
I,,5,404,snr_p_db,2158,2158,1877,1,2158,0,0,0,0,dB,6.78652187941712,6.936907167570446,6.997507665495213,7.037204922966165,7.078915043681739,7.142012886913099,7.248788937969707,7.038285880435795,0.06119702827980241
I,,5,404,delta_p_db,2158,2158,1877,1,2158,0,0,0,0,dB,1.786521991176149,1.9369072778134595,1.9975077839554838,2.0372050405230993,2.0789151582048464,2.142013005776814,2.248789052961486,2.0382859923421877,0.061197028470579985
I,,5,404,actual_total_snr_db,2158,2158,1877,1,2158,0,0,0,0,dB,4.999999860192207,4.999999875824913,4.999999883046188,4.999999888003377,4.999999893292044,4.999999899900674,4.999999913011438,4.99999988809359,7.45766433402146e-09
I,,5,404,q_clean,2158,2158,1877,1,2158,0,0,0,0,fraction,2.4953678499437863e-08,3.094664264734455e-07,7.81988307767661e-07,1.1973709964185677e-06,1.7405169328016194e-06,3.06380336100274e-06,1.1905967552934596e-05,1.3662119222710647e-06,8.896300041519708e-07
I,,5,404,q_noise,2158,2158,1877,1,2158,0,0,0,0,fraction,0.3372542413585363,0.3598104889372432,0.36868108112561426,0.37442550545086195,0.3804050533676051,0.3893415484570315,0.40417248528892424,0.37451933661931924,0.008809278805956092
I,,5,505,snr_p_db,2158,2158,1877,1,2158,0,0,0,0,dB,6.8622126800390335,6.936721275981776,6.992569019015139,7.035485047462916,7.078879851288836,7.1374706182757155,7.2394032956955,7.036152821116113,0.06175126670739148
I,,5,505,delta_p_db,2158,2158,1877,1,2158,0,0,0,0,dB,1.8622128024504645,1.9367213872851212,1.992569137233722,2.035485161794851,2.0788799602015318,2.1374707297857576,2.2394034198344634,2.0361529329627746,0.06175126636943847
I,,5,505,actual_total_snr_db,2158,2158,1877,1,2158,0,0,0,0,dB,4.99999986670729,4.999999875863177,4.999999883116201,4.99999988797285,4.999999893041525,4.99999990041591,4.999999917595478,4.999999888153322,7.429760771343281e-09
I,,5,505,q_clean,2158,2158,1877,1,2158,0,0,0,0,fraction,2.4953678499437863e-08,3.094664264734455e-07,7.81988307767661e-07,1.1973709964185677e-06,1.7405169328016194e-06,3.06380336100274e-06,1.1905967552934596e-05,1.3662119222710647e-06,8.896300041519708e-07
I,,5,505,q_noise,2158,2158,1877,1,2158,0,0,0,0,fraction,0.34870438138781307,0.35978297487193994,0.3679632740587386,0.374177890570264,0.38039961135154327,0.38870292513167154,0.4028833556439622,0.374210920573277,0.008893981355716566
I,,5,8128,snr_p_db,2158,2158,1877,1,2158,0,0,0,0,dB,6.845675320106662,6.937215855290721,6.995787238430764,7.035474896042357,7.077316170493159,7.1383275447665495,7.230612840362847,7.036759590874073,0.06055518811542132
I,,5,8128,delta_p_db,2158,2158,1877,1,2158,0,0,0,0,dB,1.8456754331713208,1.9372159606032473,1.995787361271087,2.035475003548409,2.077316283487143,2.1383276586254896,2.2306129439045366,2.036759702886716,0.06055518815612681
I,,5,8128,actual_total_snr_db,2158,2158,1877,1,2158,0,0,0,0,dB,4.9999998646875525,4.999999876205378,4.999999883337431,4.999999888100433,4.999999892768596,4.999999900050303,4.999999912097675,4.999999887987339,7.128179856060995e-09
I,,5,8128,q_clean,2158,2158,1877,1,2158,0,0,0,0,fraction,2.4953678499437863e-08,3.094664264734455e-07,7.81988307767661e-07,1.1973709964185677e-06,1.7405169328016194e-06,3.06380336100274e-06,1.1905967552934596e-05,1.3662119222710647e-06,8.896300041519708e-07
I,,5,8128,q_noise,2158,2158,1877,1,2158,0,0,0,0,fraction,0.34622078735964845,0.3598559095359176,0.3684311490464359,0.3741762655540209,0.3801765407826467,0.3888238800541009,0.40167365990441345,0.37430077341386364,0.008719867332945214
I,,10,101,snr_p_db,2158,2158,1877,1,2158,0,0,0,0,dB,11.845893700625027,11.93915615129462,11.998297493035889,12.039227223779172,12.079486805224901,12.134992714097596,12.256579334140598,12.039019919391523,0.05909128972333881
I,,10,101,delta_p_db,2158,2158,1877,1,2158,0,0,0,0,dB,1.8458936464615594,1.9391560805239274,1.99829743779992,2.0392271672760653,2.0794867459510984,2.134992648657036,2.2565792828213085,2.039019860872176,0.05909128979023757
I,,10,101,actual_total_snr_db,2158,2158,1877,1,2158,0,0,0,0,dB,10.000000028295137,10.000000044165603,10.00000005256671,10.000000058548911,10.000000064393955,10.00000007347051,10.000000086250726,10.00000005851935,9.028912018735662e-09
I,,10,101,q_clean,2158,2158,1877,1,2158,0,0,0,0,fraction,2.4953678499437863e-08,3.094664264734455e-07,7.81988307767661e-07,1.1973709964185677e-06,1.7405169328016194e-06,3.06380336100274e-06,1.1905967552934596e-05,1.3662119222710647e-06,8.896300041519708e-07
I,,10,101,q_noise,2158,2158,1877,1,2158,0,0,0,0,fraction,0.34625214012066224,0.36014190637629023,0.3687955797784005,0.3747178842493313,0.38048636621863674,0.38835429959539236,0.40524093425304736,0.37462918739650647,0.008511030041195309
I,,10,202,snr_p_db,2158,2158,1877,1,2158,0,0,0,0,dB,11.847699566733365,11.941305073103848,11.997953148764028,12.036578098442096,12.081026179917838,12.13663882196785,12.247086030863974,12.038285173137805,0.06002921105015738
I,,10,202,delta_p_db,2158,2158,1877,1,2158,0,0,0,0,dB,1.8476995086163717,1.9413050177449298,1.9979530976522608,2.036578034855852,2.0810261248862956,2.136638767208768,2.24708597823567,2.0382851145354133,0.060029210933927456
I,,10,202,actual_total_snr_db,2158,2158,1877,1,2158,0,0,0,0,dB,10.000000023520709,10.000000043824322,10.00000005223664,10.00000005857553,10.00000006497346,10.000000074031842,10.000000085720773,10.000000058602394,9.077732980048757e-09
I,,10,202,q_clean,2158,2158,1877,1,2158,0,0,0,0,fraction,2.4953678499437863e-08,3.094664264734455e-07,7.81988307767661e-07,1.1973709964185677e-06,1.7405169328016194e-06,3.06380336100274e-06,1.1905967552934596e-05,1.3662119222710647e-06,8.896300041519708e-07
I,,10,202,q_noise,2158,2158,1877,1,2158,0,0,0,0,fraction,0.3465243921196037,0.3604580537019194,0.3687460982910263,0.3743351013695655,0.38070579458802134,0.3885855000563824,0.4039391474990186,0.3745215447171182,0.008643390008892348
I,,10,303,snr_p_db,2158,2158,1877,1,2158,0,0,0,0,dB,11.858450158775423,11.934080505901026,11.99518328303835,12.037191057432302,12.077674666757481,12.137389986276624,12.232750191077823,12.036547093973454,0.061632035248216734
I,,10,303,delta_p_db,2158,2158,1877,1,2158,0,0,0,0,dB,1.8584500988348618,1.9340804481322875,1.9951832241236236,2.037190998425117,2.07767459641947,2.1373899275970274,2.232750132452211,2.036547035756718,0.06163203529341649
I,,10,303,actual_total_snr_db,2158,2158,1877,1,2158,0,0,0,0,dB,10.000000029636194,10.000000043566862,10.00000005234244,10.00000005835109,10.000000064245349,10.000000072695508,10.000000092572769,10.000000058216738,8.901622193148898e-09
I,,10,303,q_clean,2158,2158,1877,1,2158,0,0,0,0,fraction,2.4953678499437863e-08,3.094664264734455e-07,7.81988307767661e-07,1.1973709964185677e-06,1.7405169328016194e-06,3.06380336100274e-06,1.1905967552934596e-05,1.3662119222710647e-06,8.896300041519708e-07
I,,10,303,q_noise,2158,2158,1877,1,2158,0,0,0,0,fraction,0.34813943674704506,0.3593930469672665,0.36834331836863543,0.37442437599044875,0.38022789059651374,0.38869127558878297,0.4019684027142304,0.37426792562069067,0.00888100874651155
I,,10,404,snr_p_db,2158,2158,1877,1,2158,0,0,0,0,dB,11.78652205466484,11.936907346050024,11.997507843507494,12.037205101752626,12.078915210307994,12.142013090200347,12.248789119781119,12.038286050760215,0.06119702841366206
I,,10,404,delta_p_db,2158,2158,1877,1,2158,0,0,0,0,dB,1.7865219931184533,1.9369072769789606,1.9975077823500351,2.0372050424325643,2.078915158821498,2.14201302573266,2.248789058090515,2.038285992606253,0.06119702850960416
I,,10,404,actual_total_snr_db,2158,2158,1877,1,2158,0,0,0,0,dB,10.000000030198796,10.000000043718233,10.000000052147689,10.000000058185249,10.00000006405464,10.000000072822779,10.000000091001747,10.000000058153967,8.853148508897442e-09
I,,10,404,q_clean,2158,2158,1877,1,2158,0,0,0,0,fraction,2.4953678499437863e-08,3.094664264734455e-07,7.81988307767661e-07,1.1973709964185677e-06,1.7405169328016194e-06,3.06380336100274e-06,1.1905967552934596e-05,1.3662119222710647e-06,8.896300041519708e-07
I,,10,404,q_noise,2158,2158,1877,1,2158,0,0,0,0,fraction,0.33725424165493756,0.35981048881423094,0.3686810808922372,0.3744255057259105,0.38040505379106204,0.3893415512630184,0.4041724859925982,0.37451933665727466,0.008809278810350943
I,,10,505,snr_p_db,2158,2158,1877,1,2158,0,0,0,0,dB,11.862212846573637,11.93672143544565,11.992569176852125,12.035485213512008,12.078880023864157,12.137470803065469,12.23940346664562,12.036152991517573,0.06175126620713637
I,,10,505,delta_p_db,2158,2158,1877,1,2158,0,0,0,0,dB,1.8622127994813817,1.936721392831175,1.992569130916951,2.035485162605891,2.0788799642628257,2.137470733119091,2.2394034205702633,2.0361529328932972,0.061751265838967596
I,,10,505,actual_total_snr_db,2158,2158,1877,1,2158,0,0,0,0,dB,10.000000026016597,10.000000044268425,10.000000052443976,10.000000058697442,10.000000064568022,10.000000073105582,10.000000086443068,10.000000058624279,8.962410141045802e-09
I,,10,505,q_clean,2158,2158,1877,1,2158,0,0,0,0,fraction,2.4953678499437863e-08,3.094664264734455e-07,7.81988307767661e-07,1.1973709964185677e-06,1.7405169328016194e-06,3.06380336100274e-06,1.1905967552934596e-05,1.3662119222710647e-06,8.896300041519708e-07
I,,10,505,q_noise,2158,2158,1877,1,2158,0,0,0,0,fraction,0.3487043809425505,0.35978297568951795,0.3679632731394498,0.3741778906871358,0.3803996119309346,0.3887029256008605,0.40288335574512807,0.374210920564352,0.008893981279384034
I,,10,8128,snr_p_db,2158,2158,1877,1,2158,0,0,0,0,dB,11.845675485533437,11.937215998467241,11.995787418268797,12.035475055517649,12.0773163352716,12.138327736425357,12.230613005132302,12.036759761608396,0.0605551881781864
I,,10,8128,delta_p_db,2158,2158,1877,1,2158,0,0,0,0,dB,1.8456754322898095,1.9372159519897885,1.9957873585998767,2.035475000251667,2.0773162835472103,2.138327672173483,2.23061294048807,2.036759702975248,0.060555188229864616
I,,10,8128,actual_total_snr_db,2158,2158,1877,1,2158,0,0,0,0,dB,10.000000029299692,10.000000043984006,10.000000052651206,10.000000058536635,10.000000064641041,10.000000073203122,10.000000085137074,10.000000058633148,8.701080896600613e-09
I,,10,8128,q_clean,2158,2158,1877,1,2158,0,0,0,0,fraction,2.4953678499437863e-08,3.094664264734455e-07,7.81988307767661e-07,1.1973709964185677e-06,1.7405169328016194e-06,3.06380336100274e-06,1.1905967552934596e-05,1.3662119222710647e-06,8.896300041519708e-07
I,,10,8128,q_noise,2158,2158,1877,1,2158,0,0,0,0,fraction,0.3462207872269474,0.3598559082663081,0.36843114865796833,0.3741762650789505,0.38017654079121666,0.3888238819606977,0.40167365943372785,0.374300773426469,0.008719867343762249
S_00,S_00,0,101,snr_p_db,2158,2158,1877,1,2158,0,0,0,0,dB,2.383690739705137,2.5060957954979055,2.5746906663584204,2.620851406856226,2.669439683293257,2.7413802722247183,2.8664509418264723,2.6211775049165937,0.07145607179666956
S_00,S_00,0,101,delta_p_db,2158,2158,1877,1,2158,0,0,0,0,dB,2.383690738846382,2.5060957951768716,2.574690665830835,2.620851404052731,2.6694396809504233,2.741380275577363,2.866450947307162,2.621177504773949,0.07145607178109604
S_00,S_00,0,101,actual_total_snr_db,2158,2158,1877,1,2158,0,0,0,0,dB,-1.689725014713376e-08,-8.674164938978096e-09,-3.7173861934891003e-09,2.2720374789747507e-10,3.999890743020281e-09,8.924197361922945e-09,1.769137712208145e-08,1.4261584373296513e-10,5.43788427961499e-09
S_00,S_00,0,101,q_clean,2158,2158,1877,1,2158,0,0,0,0,fraction,2.4953678499437863e-08,3.094664264734455e-07,7.81988307767661e-07,1.1973709964185677e-06,1.7405169328016194e-06,3.06380336100274e-06,1.1905967552934596e-05,1.3662119222710647e-06,8.896300041519708e-07
S_00,S_00,0,101,q_noise,2158,2158,1877,1,2158,0,0,0,0,fraction,0.42239642598180493,0.4384481024181735,0.44724781852109735,0.4530916702441117,0.4591761848638015,0.4680617504095443,0.4831615974717542,0.4530590832665326,0.008999762901535414
S_00,S_00,0,202,snr_p_db,2158,2158,1877,1,2158,0,0,0,0,dB,2.339936419194562,2.5029258391469127,2.568341281345766,2.618382260314961,2.667645149111121,2.7438131409888964,2.888618794346241,2.619394965855868,0.07373285396420759
S_00,S_00,0,202,delta_p_db,2158,2158,1877,1,2158,0,0,0,0,dB,2.3399364234353666,2.5029258380837835,2.5683412845723343,2.6183822639478582,2.6676451465272986,2.7438131419491603,2.888618788254194,2.6193949658782754,0.07373285393744328
S_00,S_00,0,202,actual_total_snr_db,2158,2158,1877,1,2158,0,0,0,0,dB,-1.9247897682368354e-08,-8.759515152395373e-09,-3.773232687403095e-09,-6.194767320622507e-11,3.7122181183364564e-09,9.066216471312345e-09,2.3820347385997717e-08,-2.2436312556122307e-11,5.427345535210548e-09
S_00,S_00,0,202,q_clean,2158,2158,1877,1,2158,0,0,0,0,fraction,2.4953678499437863e-08,3.094664264734455e-07,7.81988307767661e-07,1.1973709964185677e-06,1.7405169328016194e-06,3.06380336100274e-06,1.1905967552934596e-05,1.3662119222710647e-06,8.896300041519708e-07
S_00,S_00,0,202,q_noise,2158,2158,1877,1,2158,0,0,0,0,fraction,0.41654725163361866,0.43803789005260685,0.4464394760285466,0.4527814073583149,0.4589527009619123,0.468359292723314,0.48579334395979823,0.4528298179621696,0.009279415400010335
S_00,S_00,0,303,snr_p_db,2158,2158,1877,1,2158,0,0,0,0,dB,2.385507332419943,2.5018839918026523,2.574023095610604,2.619601222390755,2.669025240652855,2.743608260431203,2.8651699541030213,2.620743581436791,0.07272935146033856
S_00,S_00,0,303,delta_p_db,2158,2158,1877,1,2158,0,0,0,0,dB,2.385507331669055,2.501883994630274,2.574023094744372,2.619601228196719,2.66902524478651,2.743608253485286,2.8651699508473,2.620743581183718,0.0727293516061568
S_00,S_00,0,303,actual_total_snr_db,2158,2158,1877,1,2158,0,0,0,0,dB,-1.823639868693225e-08,-8.892633158210279e-09,-3.534545727827142e-09,2.1334346922140961e-10,3.9714360914089415e-09,9.402295537808297e-09,1.933156023686972e-08,2.5304432849977384e-10,5.590430533337484e-09
S_00,S_00,0,303,q_clean,2158,2158,1877,1,2158,0,0,0,0,fraction,2.4953678499437863e-08,3.094664264734455e-07,7.81988307767661e-07,1.1973709964185677e-06,1.7405169328016194e-06,3.06380336100274e-06,1.1905967552934596e-05,1.3662119222710647e-06,8.896300041519708e-07
S_00,S_00,0,303,q_noise,2158,2158,1877,1,2158,0,0,0,0,fraction,0.42263734107090245,0.4379032238896389,0.44716277308612806,0.4529347979869428,0.4591251558503603,0.46833436230318054,0.4830099490540349,0.45300179533028706,0.009156968701626978
S_00,S_00,0,404,snr_p_db,2158,2158,1877,1,2158,0,0,0,0,dB,2.380377892387395,2.503044282063922,2.5694942639228193,2.6198771741619398,2.6690201658356894,2.7404062376566687,2.868237624082704,2.620354719509801,0.07329399617998399
S_00,S_00,0,404,delta_p_db,2158,2158,1877,1,2158,0,0,0,0,dB,2.3803778969475298,2.5030442845686958,2.5694942613574687,2.61987718038022,2.6690201668415106,2.740406238252679,2.8682376200138098,2.6203547193998635,0.07329399612368298
S_00,S_00,0,404,actual_total_snr_db,2158,2158,1877,1,2158,0,0,0,0,dB,-1.8570817328311657e-08,-9.151574177201632e-09,-3.6836995831531593e-09,1.267709709149775e-10,3.815896580403728e-09,9.531425060561364e-09,1.770571763577812e-08,1.0990830550775304e-10,5.638959772331883e-09
S_00,S_00,0,404,q_clean,2158,2158,1877,1,2158,0,0,0,0,fraction,2.4953678499437863e-08,3.094664264734455e-07,7.81988307767661e-07,1.1973709964185677e-06,1.7405169328016194e-06,3.06380336100274e-06,1.1905967552934596e-05,1.3662119222710647e-06,8.896300041519708e-07
S_00,S_00,0,404,q_noise,2158,2158,1877,1,2158,0,0,0,0,fraction,0.42195533727331247,0.4380533060824001,0.4465856986893421,0.4529692093062464,0.4591242477507663,0.4679432403905239,0.48337463997279373,0.45295162271100586,0.009228621833036499
S_00,S_00,0,505,snr_p_db,2158,2158,1877,1,2158,0,0,0,0,dB,2.376473840539365,2.4997829395725093,2.5690831040822952,2.6201783208558247,2.6677259591350078,2.736691058561175,2.8942117193418184,2.61916101891538,0.07243159272851024
S_00,S_00,0,505,delta_p_db,2158,2158,1877,1,2158,0,0,0,0,dB,2.3764738494275472,2.4997829330819057,2.569083107039481,2.6201783259927467,2.667725956285285,2.7366910567528433,2.8942117206811444,2.6191610188218952,0.07243159293713852
S_00,S_00,0,505,actual_total_snr_db,2158,2158,1877,1,2158,0,0,0,0,dB,-2.0869537758783277e-08,-8.897364896124683e-09,-3.6630723775442696e-09,-4.182360547022545e-11,4.033484054614065e-09,9.130202877297485e-09,1.7677412696095153e-08,9.345597745954138e-11,5.581489931319226e-09
S_00,S_00,0,505,q_clean,2158,2158,1877,1,2158,0,0,0,0,fraction,2.4953678499437863e-08,3.094664264734455e-07,7.81988307767661e-07,1.1973709964185677e-06,1.7405169328016194e-06,3.06380336100274e-06,1.1905967552934596e-05,1.3662119222710647e-06,8.896300041519708e-07
S_00,S_00,0,505,q_noise,2158,2158,1877,1,2158,0,0,0,0,fraction,0.42143480106446074,0.43763119081886004,0.44653345718384385,0.45300731282257745,0.45896293046180225,0.46748660674175424,0.4864550079828823,0.4528030527695744,0.009124064543660347
S_00,S_00,0,8128,snr_p_db,2158,2158,1877,1,2158,0,0,0,0,dB,2.40195323203557,2.5055130614230148,2.5710765440791916,2.618866892811252,2.6663108287925397,2.7333321799095986,2.878875892922585,2.6192480023864553,0.06957982051184192
S_00,S_00,0,8128,delta_p_db,2158,2158,1877,1,2158,0,0,0,0,dB,2.4019532326922195,2.5055130605674427,2.571076545098196,2.618866896295697,2.666310831476001,2.733332181899694,2.8788758915154355,2.6192480025796296,0.06957982042886948
S_00,S_00,0,8128,actual_total_snr_db,2158,2158,1877,1,2158,0,0,0,0,dB,-1.9086458656152703e-08,-9.529090372353698e-09,-3.98733556470095e-09,-2.0178576346283213e-10,3.539538650945463e-09,8.932825826561407e-09,1.92255362897027e-08,-1.932035320939146e-10,5.5712568113339666e-09
S_00,S_00,0,8128,q_clean,2158,2158,1877,1,2158,0,0,0,0,fraction,2.4953678499437863e-08,3.094664264734455e-07,7.81988307767661e-07,1.1973709964185677e-06,1.7405169328016194e-06,3.06380336100274e-06,1.1905967552934596e-05,1.3662119222710647e-06,8.896300041519708e-07
S_00,S_00,0,8128,q_noise,2158,2158,1877,1,2158,0,0,0,0,fraction,0.42481906828120314,0.4383724145424441,0.4467879166628469,0.4528418150874587,0.45878628040899516,0.46707437901356313,0.4846383642654077,0.4528198855946259,0.00876404951750418
S_00,S_00,5,101,snr_p_db,2158,2158,1877,1,2158,0,0,0,0,dB,7.383690628387466,7.506095676181742,7.574690538930882,7.620851291224375,7.669439562049146,7.741380166694327,7.866450823335597,7.621177392804654,0.0714560720919896
S_00,S_00,5,101,delta_p_db,2158,2158,1877,1,2158,0,0,0,0,dB,2.3836907367928526,2.5060957916499036,2.5746906696543643,2.620851396536681,2.6694396846578003,2.7413802804401337,2.866450941955811,2.621177504689186,0.07145607188584001
S_00,S_00,5,101,actual_total_snr_db,2158,2158,1877,1,2158,0,0,0,0,dB,4.999999864819402,4.9999998762359485,4.9999998830306485,4.999999888178753,4.999999892986126,4.99999990020734,4.999999911150824,4.999999888115443,7.3291110743513854e-09
S_00,S_00,5,101,q_clean,2158,2158,1877,1,2158,0,0,0,0,fraction,2.4953678499437863e-08,3.094664264734455e-07,7.81988307767661e-07,1.1973709964185677e-06,1.7405169328016194e-06,3.06380336100274e-06,1.1905967552934596e-05,1.3662119222710647e-06,8.896300041519708e-07
S_00,S_00,5,101,q_noise,2158,2158,1877,1,2158,0,0,0,0,fraction,0.42239642570868946,0.4384481019621269,0.4472478190077487,0.45309166929761857,0.45917618532548204,0.4680617510051545,0.48316159683490906,0.453059083255639,0.0089997629152477
S_00,S_00,5,202,snr_p_db,2158,2158,1877,1,2158,0,0,0,0,dB,7.339936308673808,7.502925727274308,7.568341177752054,7.618382147089752,7.66764503833922,7.743813030650661,7.888618673502136,7.619394853845946,0.07373285371687946
S_00,S_00,5,202,delta_p_db,2158,2158,1877,1,2158,0,0,0,0,dB,2.3399364203991775,2.5029258371445047,2.5683412918814934,2.618382262590687,2.6676451486127988,2.7438131425041723,2.8886187815912083,2.6193949657890934,0.07373285364340186
S_00,S_00,5,202,actual_total_snr_db,2158,2158,1877,1,2158,0,0,0,0,dB,4.999999866076765,4.999999876163071,4.999999883548783,4.999999888000792,4.999999892765713,4.999999900128956,4.999999911561904,4.99999988805683,7.131100148702186e-09
S_00,S_00,5,202,q_clean,2158,2158,1877,1,2158,0,0,0,0,fraction,2.4953678499437863e-08,3.094664264734455e-07,7.81988307767661e-07,1.1973709964185677e-06,1.7405169328016194e-06,3.06380336100274e-06,1.1905967552934596e-05,1.3662119222710647e-06,8.896300041519708e-07
S_00,S_00,5,202,q_noise,2158,2158,1877,1,2158,0,0,0,0,fraction,0.41654725122572195,0.4380378899310759,0.44643947696019454,0.4527814071873097,0.4589527012217266,0.46835929279127286,0.4857933431708976,0.45282981795155913,0.009279415363629893
S_00,S_00,5,303,snr_p_db,2158,2158,1877,1,2158,0,0,0,0,dB,7.385507221051605,7.5018838728597705,7.574022985840987,7.619601118724797,7.669025133612014,7.743608137536972,7.8651698286662395,7.620743469385866,0.07272935173581271
S_00,S_00,5,303,delta_p_db,2158,2158,1877,1,2158,0,0,0,0,dB,2.385507324530535,2.5018839885347774,2.574023098169973,2.619601229353753,2.669025241602278,2.7436082495457446,2.8651699394520462,2.6207435811360957,0.07272935164326509
S_00,S_00,5,303,actual_total_snr_db,2158,2158,1877,1,2158,0,0,0,0,dB,4.999999859472236,4.999999876185799,4.999999883315031,4.999999888209827,4.9999998933770105,4.999999900298995,4.999999912347483,4.999999888249749,7.385610179974276e-09
S_00,S_00,5,303,q_clean,2158,2158,1877,1,2158,0,0,0,0,fraction,2.4953678499437863e-08,3.094664264734455e-07,7.81988307767661e-07,1.1973709964185677e-06,1.7405169328016194e-06,3.06380336100274e-06,1.1905967552934596e-05,1.3662119222710647e-06,8.896300041519708e-07
S_00,S_00,5,303,q_noise,2158,2158,1877,1,2158,0,0,0,0,fraction,0.4226373401218886,0.4379032231007158,0.4471627735221958,0.4529347981326827,0.45912515545379323,0.4683343618209105,0.4830099476975285,0.45300179532421,0.00915696870653
S_00,S_00,5,404,snr_p_db,2158,2158,1877,1,2158,0,0,0,0,dB,7.380377781679518,7.503044174381559,7.569494144736343,7.619877070647908,7.6690200549224254,7.740406127795869,7.86823751435398,7.62035460765718,0.07329399621390909
S_00,S_00,5,404,delta_p_db,2158,2158,1877,1,2158,0,0,0,0,dB,2.380377902067689,2.5030442924211598,2.56949426340968,2.6198771852285074,2.6690201665813964,2.7404062403246816,2.8682376162733227,2.6203547194953196,0.07329399602598684
S_00,S_00,5,404,actual_total_snr_db,2158,2158,1877,1,2158,0,0,0,0,dB,4.9999998663163385,4.999999876241946,4.999999883219703,4.999999888201331,4.9999998932328245,4.999999899926015,4.999999913837516,4.999999888161837,7.298416867277284e-09
S_00,S_00,5,404,q_clean,2158,2158,1877,1,2158,0,0,0,0,fraction,2.4953678499437863e-08,3.094664264734455e-07,7.81988307767661e-07,1.1973709964185677e-06,1.7405169328016194e-06,3.06380336100274e-06,1.1905967552934596e-05,1.3662119222710647e-06,8.896300041519708e-07
S_00,S_00,5,404,q_noise,2158,2158,1877,1,2158,0,0,0,0,fraction,0.4219553379548042,0.43805330709845103,0.44658569895085287,0.4529692099169199,0.4591242477183718,0.4679432406443841,0.48337463952783516,0.4529516227232325,0.009228621821358175
S_00,S_00,5,505,snr_p_db,2158,2158,1877,1,2158,0,0,0,0,dB,7.37647375502797,7.499782824564452,7.569082995690291,7.620178207063108,7.667725846909685,7.736690939551352,7.8942116096184245,7.619160906758104,0.07243159263644632
S_00,S_00,5,505,delta_p_db,2158,2158,1877,1,2158,0,0,0,0,dB,2.3764738581200446,2.4997829318108504,2.569083110904769,2.6201783303487236,2.6677259610494124,2.7366910499078494,2.89421172391663,2.619161018853444,0.07243159279384787
S_00,S_00,5,505,actual_total_snr_db,2158,2158,1877,1,2158,0,0,0,0,dB,4.999999863195732,4.999999875776207,4.9999998829099255,4.999999887851687,4.999999892771472,4.999999900161118,4.9999999111752045,4.999999887904637,7.427699355707874e-09
S_00,S_00,5,505,q_clean,2158,2158,1877,1,2158,0,0,0,0,fraction,2.4953678499437863e-08,3.094664264734455e-07,7.81988307767661e-07,1.1973709964185677e-06,1.7405169328016194e-06,3.06380336100274e-06,1.1905967552934596e-05,1.3662119222710647e-06,8.896300041519708e-07
S_00,S_00,5,505,q_noise,2158,2158,1877,1,2158,0,0,0,0,fraction,0.4214348022224715,0.43763119065427075,0.44653345767644015,0.453007313371213,0.45896293105531955,0.46748660590244945,0.4864550083654724,0.4528030527738501,0.009124064525594923
S_00,S_00,5,8128,snr_p_db,2158,2158,1877,1,2158,0,0,0,0,dB,7.401953114274961,7.505512959909313,7.571076452262982,7.61886678150032,7.666310704759001,7.733332077654322,7.878875771652637,7.619247890258923,0.06957982020286707
S_00,S_00,5,8128,delta_p_db,2158,2158,1877,1,2158,0,0,0,0,dB,2.401953228662283,2.505513072875493,2.5710765575718177,2.6188668961239014,2.666310823315184,2.7333321827394945,2.8788758944336665,2.619248002281154,0.06957982014487356
S_00,S_00,5,8128,actual_total_snr_db,2158,2158,1877,1,2158,0,0,0,0,dB,4.999999857140092,4.999999876282311,4.999999883040567,4.999999887765689,4.999999893042377,4.999999899689764,4.999999911824254,4.999999887977745,7.232919295444836e-09
S_00,S_00,5,8128,q_clean,2158,2158,1877,1,2158,0,0,0,0,fraction,2.4953678499437863e-08,3.094664264734455e-07,7.81988307767661e-07,1.1973709964185677e-06,1.7405169328016194e-06,3.06380336100274e-06,1.1905967552934596e-05,1.3662119222710647e-06,8.896300041519708e-07
S_00,S_00,5,8128,q_noise,2158,2158,1877,1,2158,0,0,0,0,fraction,0.42481906774747713,0.43837241613410904,0.44678791825175934,0.4528418150658145,0.45878627939200467,0.4670743791166141,0.48463836461170373,0.4528198855575955,0.008764049481836218
S_00,S_00,10,101,snr_p_db,2158,2158,1877,1,2158,0,0,0,0,dB,12.383690795173148,12.506095866444454,12.574690735274759,12.620851447235907,12.669439734674668,12.74138033467338,12.866450981313047,12.621177563395582,0.07145607155590938
S_00,S_00,10,101,delta_p_db,2158,2158,1877,1,2158,0,0,0,0,dB,2.383690737447518,2.5060958001609284,2.574690673185682,2.6208513926153607,2.6694396724536813,2.741380274951255,2.8664509408888152,2.621177504925555,0.07145607144844297
S_00,S_00,10,101,actual_total_snr_db,2158,2158,1877,1,2158,0,0,0,0,dB,10.00000002671851,10.000000044120378,10.000000052545879,10.000000058458781,10.000000064374312,10.000000072884488,10.000000092746468,10.000000058470027,8.937351743817496e-09
S_00,S_00,10,101,q_clean,2158,2158,1877,1,2158,0,0,0,0,fraction,2.4953678499437863e-08,3.094664264734455e-07,7.81988307767661e-07,1.1973709964185677e-06,1.7405169328016194e-06,3.06380336100274e-06,1.1905967552934596e-05,1.3662119222710647e-06,8.896300041519708e-07
S_00,S_00,10,101,q_noise,2158,2158,1877,1,2158,0,0,0,0,fraction,0.4223964257957586,0.4384481030626179,0.44724781945718867,0.4530916688038009,0.45917618380571923,0.4680617503328556,0.48316159670792974,0.45305908328631583,0.00899976285906966
S_00,S_00,10,202,snr_p_db,2158,2158,1877,1,2158,0,0,0,0,dB,12.339936499716625,12.502925902035363,12.568341332775208,12.618382326712961,12.667645219752263,12.743813204710477,12.888618840707167,12.619395024576423,0.07373285399432164
S_00,S_00,10,202,delta_p_db,2158,2158,1877,1,2158,0,0,0,0,dB,2.3399364401326035,2.502925842197329,2.568341281956667,2.618382266724577,2.667645148634645,2.7438131415017266,2.888618774174266,2.619394965889904,0.07373285409363838
S_00,S_00,10,202,actual_total_snr_db,2158,2158,1877,1,2158,0,0,0,0,dB,10.00000003214831,10.00000004387738,10.00000005240446,10.00000005855525,10.000000064947015,10.000000073904316,10.000000092176155,10.000000058686519,9.13053311922747e-09
S_00,S_00,10,202,q_clean,2158,2158,1877,1,2158,0,0,0,0,fraction,2.4953678499437863e-08,3.094664264734455e-07,7.81988307767661e-07,1.1973709964185677e-06,1.7405169328016194e-06,3.06380336100274e-06,1.1905967552934596e-05,1.3662119222710647e-06,8.896300041519708e-07
S_00,S_00,10,202,q_noise,2158,2158,1877,1,2158,0,0,0,0,fraction,0.4165472538768083,0.43803789058488685,0.44643947569515385,0.45278140770818837,0.4589527012244469,0.46835929266852605,0.48579334229272825,0.4528298179632995,0.009279415419891017
S_00,S_00,10,303,snr_p_db,2158,2158,1877,1,2158,0,0,0,0,dB,12.38550738877599,12.501884039422237,12.574023143123972,12.619601287874852,12.66902527658261,12.743608330318787,12.865170007207068,12.620743639272819,0.07272935185425068
S_00,S_00,10,303,delta_p_db,2158,2158,1877,1,2158,0,0,0,0,dB,2.3855073245290352,2.5018839942197113,2.5740230864769673,2.6196012277352745,2.6690252295811403,2.7436082601732616,2.8651699407340745,2.6207435808778357,0.07272935188599963
S_00,S_00,10,303,actual_total_snr_db,2158,2158,1877,1,2158,0,0,0,0,dB,10.000000026822757,10.000000043365226,10.000000052495173,10.000000058521934,10.000000064553827,10.00000007302967,10.000000087206294,10.000000058394983,8.919312104992438e-09
S_00,S_00,10,303,q_clean,2158,2158,1877,1,2158,0,0,0,0,fraction,2.4953678499437863e-08,3.094664264734455e-07,7.81988307767661e-07,1.1973709964185677e-06,1.7405169328016194e-06,3.06380336100274e-06,1.1905967552934596e-05,1.3662119222710647e-06,8.896300041519708e-07
S_00,S_00,10,303,q_noise,2158,2158,1877,1,2158,0,0,0,0,fraction,0.42263734012168924,0.4379032238365016,0.44716277203372556,0.452934797928822,0.45912515395667075,0.4683343631219195,0.48300994785014284,0.453001795291171,0.009156968737546066
S_00,S_00,10,404,snr_p_db,2158,2158,1877,1,2158,0,0,0,0,dB,12.38037798652162,12.503044327839303,12.56949430326339,12.619877228183615,12.669020202333764,12.740406306899095,12.868237685223562,12.620354777467046,0.07329399573070766
S_00,S_00,10,404,delta_p_db,2158,2158,1877,1,2158,0,0,0,0,dB,2.380377912376336,2.503044280479696,2.569494252464433,2.619877180457127,2.6690201580682773,2.7404062384262775,2.8682376335362596,2.620354719379101,0.07329399619287998
S_00,S_00,10,404,actual_total_snr_db,2158,2158,1877,1,2158,0,0,0,0,dB,10.000000030038743,10.000000043503416,10.000000051702546,10.000000058145403,10.000000064060362,10.000000073124419,10.000000087530651,10.000000058087945,8.898082981527419e-09
S_00,S_00,10,404,q_clean,2158,2158,1877,1,2158,0,0,0,0,fraction,2.4953678499437863e-08,3.094664264734455e-07,7.81988307767661e-07,1.1973709964185677e-06,1.7405169328016194e-06,3.06380336100274e-06,1.1905967552934596e-05,1.3662119222710647e-06,8.896300041519708e-07
S_00,S_00,10,404,q_noise,2158,2158,1877,1,2158,0,0,0,0,fraction,0.42195533932688195,0.4380533055533155,0.4465856975561172,0.4529692093159447,0.4591242466581383,0.46794324041182367,0.483374641581389,0.4529516227082459,0.00922862184136238
S_00,S_00,10,505,snr_p_db,2158,2158,1877,1,2158,0,0,0,0,dB,12.376473908175162,12.499783004093738,12.56908317996989,12.620178369924764,12.66772601060541,12.736691119846778,12.894211771743453,12.61916107715039,0.07243159269416834
S_00,S_00,10,505,delta_p_db,2158,2158,1877,1,2158,0,0,0,0,dB,2.3764738519374005,2.4997829387617125,2.5690831167335584,2.6201783257305715,2.6677259560256044,2.7366910548752856,2.8942117264994947,2.6191610187666368,0.07243159269689618
S_00,S_00,10,505,actual_total_snr_db,2158,2158,1877,1,2158,0,0,0,0,dB,10.000000023006848,10.000000044053161,10.000000052439592,10.000000058201278,10.000000064412394,10.000000072793956,10.000000091411287,10.000000058383755,8.910116468766675e-09
S_00,S_00,10,505,q_clean,2158,2158,1877,1,2158,0,0,0,0,fraction,2.4953678499437863e-08,3.094664264734455e-07,7.81988307767661e-07,1.1973709964185677e-06,1.7405169328016194e-06,3.06380336100274e-06,1.1905967552934596e-05,1.3662119222710647e-06,8.896300041519708e-07
S_00,S_00,10,505,q_noise,2158,2158,1877,1,2158,0,0,0,0,fraction,0.4214348013988223,0.4376311915543441,0.4465334584192627,0.45300731278956674,0.4589629304294499,0.4674866065115448,0.48645500867089114,0.4528030527631251,0.009124064511950266
S_00,S_00,10,8128,snr_p_db,2158,2158,1877,1,2158,0,0,0,0,dB,12.401953299183885,12.505513119259781,12.571076611731403,12.618866957222195,12.666310876179372,12.733332221412448,12.878875934712589,12.619248060996572,0.06957982016883235
S_00,S_00,10,8128,delta_p_db,2158,2158,1877,1,2158,0,0,0,0,dB,2.401953239953275,2.505513062226874,2.571076547370276,2.6188668950913927,2.66631083577657,2.7333321736576885,2.8788758880748997,2.619248002500803,0.06957982035814175
S_00,S_00,10,8128,actual_total_snr_db,2158,2158,1877,1,2158,0,0,0,0,dB,10.00000002375071,10.000000043613296,10.000000052586685,10.000000058470508,10.000000064646848,10.000000073423168,10.000000088844667,10.000000058495772,9.010827732713122e-09
S_00,S_00,10,8128,q_clean,2158,2158,1877,1,2158,0,0,0,0,fraction,2.4953678499437863e-08,3.094664264734455e-07,7.81988307767661e-07,1.1973709964185677e-06,1.7405169328016194e-06,3.06380336100274e-06,1.1905967552934596e-05,1.3662119222710647e-06,8.896300041519708e-07
S_00,S_00,10,8128,q_noise,2158,2158,1877,1,2158,0,0,0,0,fraction,0.4248190692428595,0.43837241475703903,0.44678791695226827,0.45284181493573034,0.45878628094492635,0.4670743780021788,0.48463836385713177,0.4528198855848342,0.00876404950924444
S_01,S_01,0,101,snr_p_db,2158,2158,1877,1,2158,0,0,0,0,dB,1.3995966566558906,1.5374354976073514,1.5968214178574809,1.6357653623319712,1.677480129176274,1.7393688838274424,1.8297572145064989,1.6371540835840883,0.060991232889572554
S_01,S_01,0,101,delta_p_db,2158,2158,1877,1,2158,0,0,0,0,dB,1.3995966442729415,1.5374354988647867,1.5968214171004447,1.635765368746072,1.6774801252118738,1.7393688808512675,1.8297572163036637,1.6371540834421079,0.060991232902993305
S_01,S_01,0,101,actual_total_snr_db,2158,2158,1877,1,2158,0,0,0,0,dB,-2.152066179281617e-08,-8.853458511994472e-09,-3.48592518071076e-09,6.335776104328827e-11,3.8877852643166005e-09,9.396683200181501e-09,2.2651567073548964e-08,1.419598448946081e-10,5.524597275160362e-09
S_01,S_01,0,101,q_clean,2158,2158,1877,1,2158,0,0,0,0,fraction,2.4953678499437863e-08,3.094664264734455e-07,7.81988307767661e-07,1.1973709964185677e-06,1.7405169328016194e-06,3.06380336100274e-06,1.1905967552934596e-05,1.3662119222710647e-06,8.896300041519708e-07
S_01,S_01,0,101,q_noise,2158,2158,1877,1,2158,0,0,0,0,fraction,0.27549756522865865,0.29813101598334873,0.3076638105534323,0.31384386555081756,0.3204032856072637,0.33001913172689645,0.34381879074686283,0.313995763482278,0.009631866569466475
S_01,S_01,0,202,snr_p_db,2158,2158,1877,1,2158,0,0,0,0,dB,1.4160371399878693,1.537840885815371,1.5962002861300872,1.632951577834039,1.677700980697511,1.7374080623833406,1.8721535259625819,1.6356614923916415,0.06122763923319488
S_01,S_01,0,202,delta_p_db,2158,2158,1877,1,2158,0,0,0,0,dB,1.4160371346992606,1.5378408839223112,1.5962002869518388,1.632951582054,1.6777009743117264,1.737408063417019,1.8721535234857611,1.6356614923463395,0.06122763932247786
S_01,S_01,0,202,actual_total_snr_db,2158,2158,1877,1,2158,0,0,0,0,dB,-2.1554276319811988e-08,-8.756573640210085e-09,-3.625347404857318e-09,1.1220817967922436e-10,3.7017570939882202e-09,9.005616638732588e-09,2.0005803533518215e-08,4.52817277094099e-11,5.453764994392877e-09
S_01,S_01,0,202,q_clean,2158,2158,1877,1,2158,0,0,0,0,fraction,2.4953678499437863e-08,3.094664264734455e-07,7.81988307767661e-07,1.1973709964185677e-06,1.7405169328016194e-06,3.06380336100274e-06,1.1905967552934596e-05,1.3662119222710647e-06,8.896300041519708e-07
S_01,S_01,0,202,q_noise,2158,2158,1877,1,2158,0,0,0,0,fraction,0.2782348550539887,0.2981965170715396,0.3075665445358621,0.3133990947222135,0.3204372989820503,0.32971704327708035,0.3501927385761022,0.31375944372974013,0.009669702514407597
S_01,S_01,0,303,snr_p_db,2158,2158,1877,1,2158,0,0,0,0,dB,1.434071963193615,1.5422316234417335,1.596225509626853,1.6362680457765635,1.6792492318507302,1.7423493309853624,1.8372876446711048,1.6378720256356263,0.06119651429967552
S_01,S_01,0,303,delta_p_db,2158,2158,1877,1,2158,0,0,0,0,dB,1.4340719653498992,1.5422316303916395,1.596225499250941,1.6362680487814398,1.6792492337595617,1.7423493270584245,1.837287640172657,1.637872025473632,0.06119651433469128
S_01,S_01,0,303,actual_total_snr_db,2158,2158,1877,1,2158,0,0,0,0,dB,-1.699399533626574e-08,-8.659666420138652e-09,-3.5619496241712444e-09,7.270257635777664e-11,3.9173467227772264e-09,9.380308485887458e-09,1.7573281723696935e-08,1.6197418685251962e-10,5.534977157052713e-09
S_01,S_01,0,303,q_clean,2158,2158,1877,1,2158,0,0,0,0,fraction,2.4953678499437863e-08,3.094664264734455e-07,7.81988307767661e-07,1.1973709964185677e-06,1.7405169328016194e-06,3.06380336100274e-06,1.1905967552934596e-05,1.3662119222710647e-06,8.896300041519708e-07
S_01,S_01,0,303,q_noise,2158,2158,1877,1,2158,0,0,0,0,fraction,0.2812257746531999,0.2989058838855845,0.3075684369277554,0.3139231795695019,0.3206798029994401,0.3304782852210439,0.3449556879134451,0.3141087440894767,0.009653978501113086
S_01,S_01,0,404,snr_p_db,2158,2158,1877,1,2158,0,0,0,0,dB,1.4499622380845318,1.5371794118575635,1.5981312394761105,1.6388203938742025,1.6809029302048377,1.740414223471533,1.8478578544144857,1.6391690312655827,0.061858532908746565
S_01,S_01,0,404,delta_p_db,2158,2158,1877,1,2158,0,0,0,0,dB,1.4499622352751549,1.5371794114534227,1.59813123682709,1.6388203959879308,1.6809029339353092,1.7404142221287853,1.847857856764672,1.639169031250382,0.06185853281994906
S_01,S_01,0,404,actual_total_snr_db,2158,2158,1877,1,2158,0,0,0,0,dB,-1.8747491764217954e-08,-9.352852584300207e-09,-3.6244294856493274e-09,-6.636959680417051e-11,3.795814219848506e-09,9.260878650931575e-09,2.1156698465243995e-08,1.5180430181025826e-11,5.6216712659619e-09
S_01,S_01,0,404,q_clean,2158,2158,1877,1,2158,0,0,0,0,fraction,2.4953678499437863e-08,3.094664264734455e-07,7.81988307767661e-07,1.1973709964185677e-06,1.7405169328016194e-06,3.06380336100274e-06,1.1905967552934596e-05,1.3662119222710647e-06,8.896300041519708e-07
S_01,S_01,0,404,q_noise,2158,2158,1877,1,2158,0,0,0,0,fraction,0.2838514301667691,0.2980906702778912,0.30787281802349353,0.31432623908821494,0.3209378511593929,0.33018072625681777,0.3465480616815555,0.3143120290064729,0.009764995656877825
S_01,S_01,0,505,snr_p_db,2158,2158,1877,1,2158,0,0,0,0,dB,1.4406412157850075,1.5352963743819361,1.5935274311064838,1.6331750669387244,1.676004861089354,1.738408477365294,1.8581101077373694,1.6352124217421213,0.06181497588678792
S_01,S_01,0,505,delta_p_db,2158,2158,1877,1,2158,0,0,0,0,dB,1.4406412077539008,1.5352963713153673,1.5935274313277021,1.633175068529301,1.6760048616030012,1.7384084774215411,1.8581101062815162,1.6352124217079775,0.06181497588417681
S_01,S_01,0,505,actual_total_snr_db,2158,2158,1877,1,2158,0,0,0,0,dB,-1.795784883974774e-08,-9.581713577670174e-09,-3.6283779244644307e-09,1.2138616634189624e-10,3.708299091515721e-09,9.04932323813938e-09,2.011922290797293e-08,3.4123547612970224e-11,5.577903621650165e-09
S_01,S_01,0,505,q_clean,2158,2158,1877,1,2158,0,0,0,0,fraction,2.4953678499437863e-08,3.094664264734455e-07,7.81988307767661e-07,1.1973709964185677e-06,1.7405169328016194e-06,3.06380336100274e-06,1.1905967552934596e-05,1.3662119222710647e-06,8.896300041519708e-07
S_01,S_01,0,505,q_noise,2158,2158,1877,1,2158,0,0,0,0,fraction,0.2823121024288963,0.2977855958528012,0.30713853195863494,0.3134343503694884,0.3201727055114129,0.32987012111367514,0.3480893324389617,0.31368718102077775,0.009760633567275924
S_01,S_01,0,8128,snr_p_db,2158,2158,1877,1,2158,0,0,0,0,dB,1.4556046265518316,1.539999430068684,1.5932523629311541,1.6355127169967218,1.6764759110816139,1.7361869993443964,1.8841113945172134,1.6359331153826613,0.06002383096370686
S_01,S_01,0,8128,delta_p_db,2158,2158,1877,1,2158,0,0,0,0,dB,1.455604628105347,1.539999424444949,1.5932523737623532,1.6355127129192182,1.676475907105661,1.7361869971127992,1.8841113963970881,1.635933115595477,0.06002383099547475
S_01,S_01,0,8128,actual_total_snr_db,2158,2158,1877,1,2158,0,0,0,0,dB,-1.768838874331785e-08,-9.231773435454711e-09,-3.9125373841487816e-09,-1.1126747823847658e-10,3.450417194131394e-09,8.776810034399122e-09,1.8319156228859885e-08,-2.128356502181249e-10,5.5276759948498784e-09
S_01,S_01,0,8128,q_clean,2158,2158,1877,1,2158,0,0,0,0,fraction,2.4953678499437863e-08,3.094664264734455e-07,7.81988307767661e-07,1.1973709964185677e-06,1.7405169328016194e-06,3.06380336100274e-06,1.1905967552934596e-05,1.3662119222710647e-06,8.896300041519708e-07
S_01,S_01,0,8128,q_noise,2158,2158,1877,1,2158,0,0,0,0,fraction,0.2847844091671715,0.2985449319204268,0.30709393644673233,0.31380411393841035,0.32024738390270013,0.32952933975769666,0.3519805601247275,0.31380502885637185,0.009475940719905955
S_01,S_01,5,101,snr_p_db,2158,2158,1877,1,2158,0,0,0,0,dB,6.39959653242549,6.537435386478427,6.596821306399741,6.635765253981816,6.677480022568065,6.739368769959484,6.829757104950133,6.637153971512976,0.06099123320890165
S_01,S_01,5,101,delta_p_db,2158,2158,1877,1,2158,0,0,0,0,dB,1.399596641345051,1.5374354983289462,1.5968214144677058,1.6357653680427564,1.677480127737205,1.7393688800796665,1.8297572189372127,1.6371540834817102,0.060991232963625915
S_01,S_01,5,101,actual_total_snr_db,2158,2158,1877,1,2158,0,0,0,0,dB,4.999999865595914,4.999999876024554,4.999999883110458,4.999999887925506,4.999999893090242,4.999999900062383,4.999999914083782,4.999999888031252,7.3306964130410545e-09
S_01,S_01,5,101,q_clean,2158,2158,1877,1,2158,0,0,0,0,fraction,2.4953678499437863e-08,3.094664264734455e-07,7.81988307767661e-07,1.1973709964185677e-06,1.7405169328016194e-06,3.06380336100274e-06,1.1905967552934596e-05,1.3662119222710647e-06,8.896300041519708e-07
S_01,S_01,5,101,q_noise,2158,2158,1877,1,2158,0,0,0,0,fraction,0.27549756474021964,0.2981310158967488,0.30766381013372995,0.313843865439698,0.3204032860024333,0.33001913160786217,0.34381879114476926,0.31399576348840075,0.009631866578590685
S_01,S_01,5,202,snr_p_db,2158,2158,1877,1,2158,0,0,0,0,dB,6.416037014719001,6.537840777049466,6.59620016892225,6.632951468482245,6.6777008612491215,6.737407955019888,6.872153421582935,6.635661380430582,0.06122763959082096
S_01,S_01,5,202,delta_p_db,2158,2158,1877,1,2158,0,0,0,0,dB,1.4160371301726218,1.5378408845917801,1.5962002880155952,1.6329515842228075,1.677700971043147,1.7374080656494482,1.8721535285110902,1.6356614924579314,0.0612276394339346
S_01,S_01,5,202,actual_total_snr_db,2158,2158,1877,1,2158,0,0,0,0,dB,4.99999986368251,4.9999998761720335,4.999999883231724,4.999999888132888,4.99999989257615,4.999999899798739,4.9999999096162036,4.999999887972637,7.186692615316552e-09
S_01,S_01,5,202,q_clean,2158,2158,1877,1,2158,0,0,0,0,fraction,2.4953678499437863e-08,3.094664264734455e-07,7.81988307767661e-07,1.1973709964185677e-06,1.7405169328016194e-06,3.06380336100274e-06,1.1905967552934596e-05,1.3662119222710647e-06,8.896300041519708e-07
S_01,S_01,5,202,q_noise,2158,2158,1877,1,2158,0,0,0,0,fraction,0.2782348543016949,0.2981965171797154,0.3075665447054654,0.3133990950650912,0.32043729847059993,0.32971704362162313,0.3501927393280103,0.31375944374712456,0.009669702531863092
S_01,S_01,5,303,snr_p_db,2158,2158,1877,1,2158,0,0,0,0,dB,6.434071856877513,6.54223152207459,6.596225390494916,6.6362679345279405,6.679249116302042,6.74234922528458,6.837287523674424,6.637871913685692,0.061196514260743164
S_01,S_01,5,303,delta_p_db,2158,2158,1877,1,2158,0,0,0,0,dB,1.4340719599679221,1.542231634894345,1.5962254966602965,1.6362680472951598,1.6792492285639442,1.7423493302130404,1.8372876360586485,1.6378720254222034,0.06119651427051393
S_01,S_01,5,303,actual_total_snr_db,2158,2158,1877,1,2158,0,0,0,0,dB,4.999999860298963,4.999999876022326,4.999999883370924,4.999999888531361,4.999999893423455,4.999999900081904,4.999999916525083,4.999999888263474,7.3243451185723214e-09
S_01,S_01,5,303,q_clean,2158,2158,1877,1,2158,0,0,0,0,fraction,2.4953678499437863e-08,3.094664264734455e-07,7.81988307767661e-07,1.1973709964185677e-06,1.7405169328016194e-06,3.06380336100274e-06,1.1905967552934596e-05,1.3662119222710647e-06,8.896300041519708e-07
S_01,S_01,5,303,q_noise,2158,2158,1877,1,2158,0,0,0,0,fraction,0.28122577376246166,0.29890588461246514,0.30756843651470067,0.31392317933471375,0.32067980218188064,0.3304782857073771,0.34495568729293113,0.3141087440814964,0.009653978491250699
S_01,S_01,5,404,snr_p_db,2158,2158,1877,1,2158,0,0,0,0,dB,6.449962108494837,6.537179300918527,6.5981311192338445,6.638820279658337,6.68090281589572,6.740414108198084,6.847857744169586,6.639168919435791,0.06185853281231639
S_01,S_01,5,404,delta_p_db,2158,2158,1877,1,2158,0,0,0,0,dB,1.4499622330753825,1.5371794173076827,1.598131237814902,1.6388203915877395,1.6809029317003903,1.7404142228641242,1.847857853819193,1.6391690313288323,0.06185853285450997
S_01,S_01,5,404,actual_total_snr_db,2158,2158,1877,1,2158,0,0,0,0,dB,4.999999864182448,4.999999876112742,4.99999988322471,4.999999887971546,4.999999893144508,4.999999899969636,4.999999915837302,4.999999888106944,7.305429613687062e-09
S_01,S_01,5,404,q_clean,2158,2158,1877,1,2158,0,0,0,0,fraction,2.4953678499437863e-08,3.094664264734455e-07,7.81988307767661e-07,1.1973709964185677e-06,1.7405169328016194e-06,3.06380336100274e-06,1.1905967552934596e-05,1.3662119222710647e-06,8.896300041519708e-07
S_01,S_01,5,404,q_noise,2158,2158,1877,1,2158,0,0,0,0,fraction,0.2838514298040282,0.2980906712240527,0.3078728181809194,0.3143262383935108,0.32093785080993653,0.33018072584334957,0.34654806123837034,0.31431202901878147,0.00976499566213327
S_01,S_01,5,505,snr_p_db,2158,2158,1877,1,2158,0,0,0,0,dB,6.440641093820406,6.5352962698692885,6.593527322969603,6.633174952878612,6.676004746424782,6.738408352359632,6.858110003168952,6.635212309741816,0.06181497557681819
S_01,S_01,5,505,delta_p_db,2158,2158,1877,1,2158,0,0,0,0,dB,1.4406412116591154,1.5352963718542183,1.5935274306258194,1.6331750699556302,1.6760048584603546,1.7384084726136364,1.8581101097233454,1.6352124217416149,0.061814975840701655
S_01,S_01,5,505,actual_total_snr_db,2158,2158,1877,1,2158,0,0,0,0,dB,4.999999864512241,4.999999875763023,4.999999883326886,4.999999888069574,4.999999892770673,4.999999900172255,4.999999909912421,4.999999888000187,7.274931586001847e-09
S_01,S_01,5,505,q_clean,2158,2158,1877,1,2158,0,0,0,0,fraction,2.4953678499437863e-08,3.094664264734455e-07,7.81988307767661e-07,1.1973709964185677e-06,1.7405169328016194e-06,3.06380336100274e-06,1.1905967552934596e-05,1.3662119222710647e-06,8.896300041519708e-07
S_01,S_01,5,505,q_noise,2158,2158,1877,1,2158,0,0,0,0,fraction,0.28231210307424764,0.297785595939932,0.30713853184665885,0.31343435059496916,0.3201727050194745,0.3298701202363773,0.34808933295560773,0.31368718102619153,0.009760633560262987
S_01,S_01,5,8128,snr_p_db,2158,2158,1877,1,2158,0,0,0,0,dB,6.455604510887766,6.5399993159368845,6.593252263963197,6.635512602500342,6.676475789248653,6.736186892854617,6.884111276797308,6.6359330034836725,0.06002383084234624
S_01,S_01,5,8128,delta_p_db,2158,2158,1877,1,2158,0,0,0,0,dB,1.455604621406679,1.539999422118385,1.5932523778181729,1.635512715605342,1.676475909116387,1.7361869967224863,1.8841113935708287,1.6359331155166694,0.060023830932674334
S_01,S_01,5,8128,actual_total_snr_db,2158,2158,1877,1,2158,0,0,0,0,dB,4.999999857167722,4.999999876284417,4.999999883079951,4.999999887890629,4.999999892745125,4.999999900164785,4.99999991160541,4.99999988796699,7.227289007869813e-09
S_01,S_01,5,8128,q_clean,2158,2158,1877,1,2158,0,0,0,0,fraction,2.4953678499437863e-08,3.094664264734455e-07,7.81988307767661e-07,1.1973709964185677e-06,1.7405169328016194e-06,3.06380336100274e-06,1.1905967552934596e-05,1.3662119222710647e-06,8.896300041519708e-07
S_01,S_01,5,8128,q_noise,2158,2158,1877,1,2158,0,0,0,0,fraction,0.28478440806400496,0.2985449315446559,0.30709393709382804,0.3138041143628262,0.32024738456252627,0.3295293396974301,0.35198055970301567,0.31380502884405703,0.009475940710146073
S_01,S_01,10,101,snr_p_db,2158,2158,1877,1,2158,0,0,0,0,dB,11.39959671607029,11.537435558092229,11.59682147463127,11.635765436548557,11.677480198019019,11.7393689411435,11.829757277001917,11.637154141982005,0.06099123281230129
S_01,S_01,10,101,delta_p_db,2158,2158,1877,1,2158,0,0,0,0,dB,1.3995966429487072,1.5374355012353456,1.5968214165692505,1.6357653746654823,1.6774801346739876,1.7393688805153453,1.8297572194460119,1.637154083372804,0.060991232857145826
S_01,S_01,10,101,actual_total_snr_db,2158,2158,1877,1,2158,0,0,0,0,dB,10.000000026865285,10.000000043752891,10.000000052509192,10.000000058705593,10.000000064729008,10.000000073156858,10.000000087807932,10.000000058609205,8.974355880512413e-09
S_01,S_01,10,101,q_clean,2158,2158,1877,1,2158,0,0,0,0,fraction,2.4953678499437863e-08,3.094664264734455e-07,7.81988307767661e-07,1.1973709964185677e-06,1.7405169328016194e-06,3.06380336100274e-06,1.1905967552934596e-05,1.3662119222710647e-06,8.896300041519708e-07
S_01,S_01,10,101,q_noise,2158,2158,1877,1,2158,0,0,0,0,fraction,0.27549756500774614,0.29813101636645717,0.3076638104687502,0.3138438664860431,0.3204032870879206,0.3300191316750741,0.3438187912216444,0.31399576347143215,0.009631866562443164
S_01,S_01,10,202,snr_p_db,2158,2158,1877,1,2158,0,0,0,0,dB,11.41603718544946,11.537840952850543,11.596200348045684,11.632951653479575,11.677701034702055,11.737408124722139,11.872153568365107,11.635661551149926,0.06122763930261742
S_01,S_01,10,202,delta_p_db,2158,2158,1877,1,2158,0,0,0,0,dB,1.4160371349159466,1.537840879354787,1.5962002919560891,1.63295158722869,1.6777009766727007,1.7374080671484118,1.8721535170843464,1.6356614924780695,0.06122763940560676
S_01,S_01,10,202,actual_total_snr_db,2158,2158,1877,1,2158,0,0,0,0,dB,10.00000002629304,10.00000004402006,10.000000052212247,10.000000058411448,10.000000064908479,10.000000074320127,10.000000087813273,10.000000058671858,9.332501583031943e-09
S_01,S_01,10,202,q_clean,2158,2158,1877,1,2158,0,0,0,0,fraction,2.4953678499437863e-08,3.094664264734455e-07,7.81988307767661e-07,1.1973709964185677e-06,1.7405169328016194e-06,3.06380336100274e-06,1.1905967552934596e-05,1.3662119222710647e-06,8.896300041519708e-07
S_01,S_01,10,202,q_noise,2158,2158,1877,1,2158,0,0,0,0,fraction,0.2782348550900002,0.2981965163334403,0.3075665453337314,0.3133990955403094,0.3204372993514844,0.32971704385298656,0.3501927376182993,0.3137594437503713,0.009669702527000003
S_01,S_01,10,303,snr_p_db,2158,2158,1877,1,2158,0,0,0,0,dB,11.434072019002738,11.542231693032429,11.596225571468953,11.636268108512741,11.679249299215794,11.742349393352917,11.83728769086562,11.637872083700612,0.06119651451103812
S_01,S_01,10,303,delta_p_db,2158,2158,1877,1,2158,0,0,0,0,dB,1.4340719584588981,1.5422316397636309,1.5962254986687219,1.6362680516116295,1.6792492328662743,1.7423493266279337,1.8372876323089262,1.6378720253812376,0.061196514537179045
S_01,S_01,10,303,actual_total_snr_db,2158,2158,1877,1,2158,0,0,0,0,dB,10.000000026900713,10.000000043555534,10.000000052400821,10.000000058356836,10.000000064257982,10.000000073210002,10.000000088970467,10.000000058319381,8.900036305007813e-09
S_01,S_01,10,303,q_clean,2158,2158,1877,1,2158,0,0,0,0,fraction,2.4953678499437863e-08,3.094664264734455e-07,7.81988307767661e-07,1.1973709964185677e-06,1.7405169328016194e-06,3.06380336100274e-06,1.1905967552934596e-05,1.3662119222710647e-06,8.896300041519708e-07
S_01,S_01,10,303,q_noise,2158,2158,1877,1,2158,0,0,0,0,fraction,0.28122577351271244,0.29890588539851637,0.30756843683492846,0.3139231800166049,0.3206798027711554,0.33047828515468036,0.3449556867273623,0.31410874407443234,0.009653978533758368
S_01,S_01,10,404,snr_p_db,2158,2158,1877,1,2158,0,0,0,0,dB,11.449962304253603,11.537179475495046,11.598131300641446,11.638820443009077,11.680902980768845,11.74041426426394,11.847857911459387,11.639169089388997,0.0618585325045879
S_01,S_01,10,404,delta_p_db,2158,2158,1877,1,2158,0,0,0,0,dB,1.449962241273863,1.5371794162011874,1.5981312404972798,1.6388203934833492,1.6809029298427085,1.740414218152027,1.8478578592332953,1.6391690312013059,0.061858532752329706
S_01,S_01,10,404,actual_total_snr_db,2158,2158,1877,1,2158,0,0,0,0,dB,10.000000031265905,10.000000043436296,10.000000052215967,10.000000058050789,10.000000064467631,10.000000072661347,10.000000085869473,10.000000058187693,8.887806309262609e-09
S_01,S_01,10,404,q_clean,2158,2158,1877,1,2158,0,0,0,0,fraction,2.4953678499437863e-08,3.094664264734455e-07,7.81988307767661e-07,1.1973709964185677e-06,1.7405169328016194e-06,3.06380336100274e-06,1.1905967552934596e-05,1.3662119222710647e-06,8.896300041519708e-07
S_01,S_01,10,404,q_noise,2158,2158,1877,1,2158,0,0,0,0,fraction,0.28385143115595185,0.29809067104521636,0.3078728186084044,0.31432623869277676,0.32093785051947504,0.33018072544924326,0.3465480620529917,0.31431202899887684,0.009764995646240438
S_01,S_01,10,505,snr_p_db,2158,2158,1877,1,2158,0,0,0,0,dB,11.440641286681752,11.535296419655008,11.593527489749903,11.633175114112488,11.676004923559308,11.738408544117027,11.858110175527267,11.63521248008191,0.06181497598626328
S_01,S_01,10,505,delta_p_db,2158,2158,1877,1,2158,0,0,0,0,dB,1.4406412162349744,1.5352963674580515,1.5935274308492893,1.633175061609149,1.676004858886628,1.7384084756713436,1.8581101191843854,1.6352124217118376,0.061814976016774346
S_01,S_01,10,505,actual_total_snr_db,2158,2158,1877,1,2158,0,0,0,0,dB,10.000000025083368,10.000000043459544,10.000000052549595,10.00000005806612,10.000000064378249,10.000000072861976,10.00000008804092,10.000000058370077,8.952233656287306e-09
S_01,S_01,10,505,q_clean,2158,2158,1877,1,2158,0,0,0,0,fraction,2.4953678499437863e-08,3.094664264734455e-07,7.81988307767661e-07,1.1973709964185677e-06,1.7405169328016194e-06,3.06380336100274e-06,1.1905967552934596e-05,1.3662119222710647e-06,8.896300041519708e-07
S_01,S_01,10,505,q_noise,2158,2158,1877,1,2158,0,0,0,0,fraction,0.28231210383042554,0.29778559522911463,0.30713853188231,0.3134343492755076,0.32017270508620194,0.3298701208439731,0.3480893343757854,0.31368718102109083,0.009760633587990978
S_01,S_01,10,8128,snr_p_db,2158,2158,1877,1,2158,0,0,0,0,dB,11.455604680596128,11.539999475296359,11.593252425454022,11.635512774897894,11.676475949442906,11.736187052402917,11.884111431189798,11.63593317415584,0.060023831062918274
S_01,S_01,10,8128,delta_p_db,2158,2158,1877,1,2158,0,0,0,0,dB,1.4556046179420177,1.5399994215842487,1.5932523762947608,1.635512711944103,1.6764759049577385,1.7361869925283966,1.8841113928065003,1.6359331155919445,0.06002383095638045
S_01,S_01,10,8128,actual_total_snr_db,2158,2158,1877,1,2158,0,0,0,0,dB,10.000000027387335,10.000000044080982,10.00000005261203,10.000000058554688,10.000000064761636,10.000000072903756,10.000000083721725,10.0000000585639,8.93224625318438e-09
S_01,S_01,10,8128,q_clean,2158,2158,1877,1,2158,0,0,0,0,fraction,2.4953678499437863e-08,3.094664264734455e-07,7.81988307767661e-07,1.1973709964185677e-06,1.7405169328016194e-06,3.06380336100274e-06,1.1905967552934596e-05,1.3662119222710647e-06,8.896300041519708e-07
S_01,S_01,10,8128,q_noise,2158,2158,1877,1,2158,0,0,0,0,fraction,0.28478440749342887,0.29854493145838934,0.3070939368507685,0.31380411378433887,0.3202473835399977,0.329529339049944,0.3519805595889687,0.313805028855896,0.009475940714370258
S_02,S_02,0,101,snr_p_db,2158,2158,1877,1,2158,0,0,0,0,dB,0.9260757256731538,1.0598992702517607,1.110116915733442,1.1442659315249206,1.1810986436499167,1.2304659363166282,1.3025977734749898,1.1452487221931817,0.051724157955347225
S_02,S_02,0,101,delta_p_db,2158,2158,1877,1,2158,0,0,0,0,dB,0.9260757158570514,1.0598992728605214,1.1101169209773767,1.1442659328253812,1.181098642762049,1.2304659335660186,1.3025977740541572,1.1452487220504621,0.05172415811282459
S_02,S_02,0,101,actual_total_snr_db,2158,2158,1877,1,2158,0,0,0,0,dB,-2.098133176035572e-08,-8.89110961724275e-09,-3.5545321378333747e-09,1.1743097723793888e-10,4.066649928058435e-09,9.06776817063554e-09,1.8968566164855405e-08,1.4270195613327855e-10,5.498476213868005e-09
S_02,S_02,0,101,q_clean,2158,2158,1877,1,2158,0,0,0,0,fraction,2.4953678499437863e-08,3.094664264734455e-07,7.81988307767661e-07,1.1973709964185677e-06,1.7405169328016194e-06,3.06380336100274e-06,1.1905967552934596e-05,1.3662119222710647e-06,8.896300041519708e-07
S_02,S_02,0,101,q_noise,2158,2158,1877,1,2158,0,0,0,0,fraction,0.19203612733180223,0.21655346790497307,0.2255596364743998,0.23162536275770462,0.23811515691949278,0.24672649537687508,0.2591344378112952,0.2317451334395172,0.009149390059285289
S_02,S_02,0,202,snr_p_db,2158,2158,1877,1,2158,0,0,0,0,dB,0.9755866573349083,1.0594845686716683,1.1086795119647763,1.1429140051288278,1.1792260759220778,1.2280538750785144,1.350140460677269,1.1437122799658581,0.05191919556040868
S_02,S_02,0,202,delta_p_db,2158,2158,1877,1,2158,0,0,0,0,dB,0.9755866561819292,1.0594845729500155,1.1086795141876697,1.142914008910398,1.1792260810895785,1.2280538782598298,1.3501404616254933,1.1437122799616557,0.05191919565193286
S_02,S_02,0,202,actual_total_snr_db,2158,2158,1877,1,2158,0,0,0,0,dB,-1.955361552747304e-08,-8.783663238156905e-09,-3.658150450150839e-09,-4.1196310453218914e-11,3.6784276017734526e-09,8.886805709133228e-09,1.781409261333606e-08,4.184711068855733e-12,5.426779152914215e-09
S_02,S_02,0,202,q_clean,2158,2158,1877,1,2158,0,0,0,0,fraction,2.4953678499437863e-08,3.094664264734455e-07,7.81988307767661e-07,1.1973709964185677e-06,1.7405169328016194e-06,3.06380336100274e-06,1.1905967552934596e-05,1.3662119222710647e-06,8.896300041519708e-07
S_02,S_02,0,202,q_noise,2158,2158,1877,1,2158,0,0,0,0,fraction,0.2011946711633312,0.216478186436585,0.22530432000202133,0.23138584631750153,0.23778580046236303,0.24630759385480913,0.26719931546833414,0.23147289811719293,0.009182971880622502
S_02,S_02,0,303,snr_p_db,2158,2158,1877,1,2158,0,0,0,0,dB,0.9924023035433884,1.061471568223625,1.1072560113236134,1.142076901190154,1.1786975803166964,1.233024953575547,1.3208125732865714,1.1441199850522614,0.05194524192802176
S_02,S_02,0,303,delta_p_db,2158,2158,1877,1,2158,0,0,0,0,dB,0.9924023015876465,1.0614715682404445,1.107256008809976,1.1420769035908758,1.1786975796885708,1.2330249550359527,1.3208125606298513,1.1441199848763592,0.05194524197777061
S_02,S_02,0,303,actual_total_snr_db,2158,2158,1877,1,2158,0,0,0,0,dB,-1.7899833452629196e-08,-9.07870221657078e-09,-3.5225186356545192e-09,1.2109686810193737e-10,3.885488959538924e-09,9.365360252995188e-09,2.0260786179404834e-08,1.7588460672192335e-10,5.563760666139163e-09
S_02,S_02,0,303,q_clean,2158,2158,1877,1,2158,0,0,0,0,fraction,2.4953678499437863e-08,3.094664264734455e-07,7.81988307767661e-07,1.1973709964185677e-06,1.7405169328016194e-06,3.06380336100274e-06,1.1905967552934596e-05,1.3662119222710647e-06,8.896300041519708e-07
S_02,S_02,0,303,q_noise,2158,2158,1877,1,2158,0,0,0,0,fraction,0.20428133855177516,0.2168367754104092,0.2250512359192429,0.23123826678669038,0.2376933949292692,0.24717008890652792,0.2622347627449602,0.23154500790839266,0.009181497461318697
S_02,S_02,0,404,snr_p_db,2158,2158,1877,1,2158,0,0,0,0,dB,0.9653666625566957,1.0604225326738197,1.1111732427994203,1.1466164367021765,1.1820558440589615,1.23234427059796,1.3473350728504072,1.1469974111028731,0.0526153063324365
S_02,S_02,0,404,delta_p_db,2158,2158,1877,1,2158,0,0,0,0,dB,0.9653666630459197,1.0604225328657835,1.1111732356577237,1.1466164360997297,1.1820558439001734,1.23234426738996,1.347335072789875,1.1469974110441432,0.05261530637592401
S_02,S_02,0,404,actual_total_snr_db,2158,2158,1877,1,2158,0,0,0,0,dB,-1.7397665226181938e-08,-9.289012370087923e-09,-3.7962650462571275e-09,2.626982311206341e-10,3.921422934974667e-09,9.273332024024448e-09,1.667485447109543e-08,5.871308709749842e-11,5.641287400289974e-09
S_02,S_02,0,404,q_clean,2158,2158,1877,1,2158,0,0,0,0,fraction,2.4953678499437863e-08,3.094664264734455e-07,7.81988307767661e-07,1.1973709964185677e-06,1.7405169328016194e-06,3.06380336100274e-06,1.1905967552934596e-05,1.3662119222710647e-06,8.896300041519708e-07
S_02,S_02,0,404,q_noise,2158,2158,1877,1,2158,0,0,0,0,fraction,0.19931316804487223,0.21664762431769072,0.22574879070562692,0.2320419570982198,0.2382831774507107,0.24705119370021555,0.26672646093917685,0.23205252937525048,0.009300436591359016
S_02,S_02,0,505,snr_p_db,2158,2158,1877,1,2158,0,0,0,0,dB,0.9552463859460556,1.059380627862637,1.1082899429840811,1.1422132647114265,1.177843716301568,1.233280275074127,1.3301566768133726,1.1436875245998737,0.05313788505106723
S_02,S_02,0,505,delta_p_db,2158,2158,1877,1,2158,0,0,0,0,dB,0.9552463777974172,1.0593806273574982,1.1082899382156577,1.1422132626722743,1.1778437190981872,1.2332802733670492,1.3301566779558882,1.143687524537336,0.0531378850283023
S_02,S_02,0,505,actual_total_snr_db,2158,2158,1877,1,2158,0,0,0,0,dB,-1.9455931565491147e-08,-9.329229984681375e-09,-3.7740677949898585e-09,2.2095345942333088e-10,3.912581739687418e-09,9.100622566270368e-09,1.581433203789802e-08,6.252055638090216e-11,5.5381279101630396e-09
S_02,S_02,0,505,q_clean,2158,2158,1877,1,2158,0,0,0,0,fraction,2.4953678499437863e-08,3.094664264734455e-07,7.81988307767661e-07,1.1973709964185677e-06,1.7405169328016194e-06,3.06380336100274e-06,1.1905967552934596e-05,1.3662119222710647e-06,8.896300041519708e-07
S_02,S_02,0,505,q_noise,2158,2158,1877,1,2158,0,0,0,0,fraction,0.19744665171309755,0.2164591516135371,0.22523422649170077,0.23126222324696877,0.2375435181711667,0.24721356912587228,0.26382047248396573,0.23146591652040976,0.009397346512184613
S_02,S_02,0,8128,snr_p_db,2158,2158,1877,1,2158,0,0,0,0,dB,0.9349997975791168,1.059183541883027,1.1091435427123453,1.1426664316941615,1.1793378910338226,1.2308977654029694,1.3220735612122203,1.143862254444107,0.05182890300871196
S_02,S_02,0,8128,delta_p_db,2158,2158,1877,1,2158,0,0,0,0,dB,0.9349997987743462,1.059183536062353,1.1091435415323592,1.1426664344222162,1.1793378890835597,1.2308977628466988,1.322073564463695,1.1438622545846129,0.05182890307003943
S_02,S_02,0,8128,actual_total_snr_db,2158,2158,1877,1,2158,0,0,0,0,dB,-1.9927811712804077e-08,-9.1567482762343e-09,-3.931789699872179e-09,9.281892947410076e-12,3.5793318649020393e-09,9.225360782840945e-09,2.0920098793816365e-08,-1.4052287488622566e-10,5.5486934639918e-09
S_02,S_02,0,8128,q_clean,2158,2158,1877,1,2158,0,0,0,0,fraction,2.4953678499437863e-08,3.094664264734455e-07,7.81988307767661e-07,1.1973709964185677e-06,1.7405169328016194e-06,3.06380336100274e-06,1.1905967552934596e-05,1.3662119222710647e-06,8.896300041519708e-07
S_02,S_02,0,8128,q_noise,2158,2158,1877,1,2158,0,0,0,0,fraction,0.19369852194636314,0.21642358434334757,0.22538644866854515,0.23134235316387813,0.23780541518837073,0.24680051476756595,0.2624489635459034,0.23149961587193593,0.009169662957326737
S_02,S_02,5,101,snr_p_db,2158,2158,1877,1,2158,0,0,0,0,dB,5.926075600651135,6.059899164602859,6.1101167984525615,6.144265829143155,6.1810985228838256,6.230465821356229,6.30259766843716,6.145248610114633,0.05172415820438218
S_02,S_02,5,101,delta_p_db,2158,2158,1877,1,2158,0,0,0,0,dB,0.9260757126524782,1.0598992773480518,1.110116922216792,1.1442659354537206,1.1810986372100067,1.2304659293247378,1.302597781095924,1.1452487220788736,0.05172415809130531
S_02,S_02,5,101,actual_total_snr_db,2158,2158,1877,1,2158,0,0,0,0,dB,4.999999860171224,4.999999875722101,4.999999883178358,4.9999998879354415,4.999999893219534,4.999999900185139,4.999999912790367,4.999999888035749,7.400714296062806e-09
S_02,S_02,5,101,q_clean,2158,2158,1877,1,2158,0,0,0,0,fraction,2.4953678499437863e-08,3.094664264734455e-07,7.81988307767661e-07,1.1973709964185677e-06,1.7405169328016194e-06,3.06380336100274e-06,1.1905967552934596e-05,1.3662119222710647e-06,8.896300041519708e-07
S_02,S_02,5,101,q_noise,2158,2158,1877,1,2158,0,0,0,0,fraction,0.1920361267356217,0.21655346871450312,0.2255596366954138,0.23162536299621683,0.23811515594549565,0.24672649464122204,0.2591344390125544,0.23174513344458927,0.00914939005521088
S_02,S_02,5,202,snr_p_db,2158,2158,1877,1,2158,0,0,0,0,dB,5.97558654384049,6.0594844532188405,6.108679392716555,6.142913897371894,6.179225962570751,6.228053766876365,6.350140349084863,6.14371216794464,0.051919195691388545
S_02,S_02,5,202,delta_p_db,2158,2158,1877,1,2158,0,0,0,0,dB,0.9755866504646877,1.0594845729357558,1.1086795088551828,1.1429140068121477,1.1792260793098281,1.2280538786146575,1.3501404607682541,1.1437122800352995,0.051919195614787424
S_02,S_02,5,202,actual_total_snr_db,2158,2158,1877,1,2158,0,0,0,0,dB,4.999999864416957,4.999999876424811,4.999999882918232,4.999999887990326,4.999999892712462,4.99999989926639,4.999999911521841,4.999999887909331,7.16382048621487e-09
S_02,S_02,5,202,q_clean,2158,2158,1877,1,2158,0,0,0,0,fraction,2.4953678499437863e-08,3.094664264734455e-07,7.81988307767661e-07,1.1973709964185677e-06,1.7405169328016194e-06,3.06380336100274e-06,1.1905967552934596e-05,1.3662119222710647e-06,8.896300041519708e-07
S_02,S_02,5,202,q_noise,2158,2158,1877,1,2158,0,0,0,0,fraction,0.20119467011174916,0.21647818643401373,0.22530431905080936,0.23138584594614453,0.23778580015000556,0.24630759391637216,0.2671993153236891,0.23147289813030444,0.00918297187364433
S_02,S_02,5,303,snr_p_db,2158,2158,1877,1,2158,0,0,0,0,dB,5.992402186870694,6.061471452858404,6.107255900375704,6.142076804158486,6.178697472284089,6.233024839696582,6.320812463815696,6.144119873231918,0.051945242200468214
S_02,S_02,5,303,delta_p_db,2158,2158,1877,1,2158,0,0,0,0,dB,0.9924022965106603,1.0614715707495717,1.1072560095046133,1.1420769103050028,1.178697580829193,1.2330249526933648,1.3208125614447823,1.1441199848554187,0.051945242057522684
S_02,S_02,5,303,actual_total_snr_db,2158,2158,1877,1,2158,0,0,0,0,dB,4.999999861012845,4.999999876629816,4.9999998832686385,4.99999988838025,4.9999998933206875,4.99999990045166,4.999999909169233,4.999999888376487,7.289476913293576e-09
S_02,S_02,5,303,q_clean,2158,2158,1877,1,2158,0,0,0,0,fraction,2.4953678499437863e-08,3.094664264734455e-07,7.81988307767661e-07,1.1973709964185677e-06,1.7405169328016194e-06,3.06380336100274e-06,1.1905967552934596e-05,1.3662119222710647e-06,8.896300041519708e-07
S_02,S_02,5,303,q_noise,2158,2158,1877,1,2158,0,0,0,0,fraction,0.20428133762156472,0.2168367758628822,0.2250512360431966,0.23123826712569562,0.23769339529363245,0.24717008850044492,0.262234762883398,0.23154500790451973,0.009181497475215215
S_02,S_02,5,404,snr_p_db,2158,2158,1877,1,2158,0,0,0,0,dB,5.965366541296183,6.060422432563329,6.11117312137474,6.146616315578299,6.182055730216388,6.232344143623397,6.347334964109007,6.1469972990843464,0.05261530608623709
S_02,S_02,5,404,delta_p_db,2158,2158,1877,1,2158,0,0,0,0,dB,0.9653666613938306,1.0604225382775383,1.1111732362597528,1.1466164326927557,1.1820558459063286,1.2323442685153927,1.3473350744381336,1.1469974109710683,0.05261530628203975
S_02,S_02,5,404,actual_total_snr_db,2158,2158,1877,1,2158,0,0,0,0,dB,4.999999861357033,4.9999998759934,4.999999883068953,4.999999888102085,4.999999892961066,4.999999900089801,4.999999914999575,4.999999888113266,7.279750378529184e-09
S_02,S_02,5,404,q_clean,2158,2158,1877,1,2158,0,0,0,0,fraction,2.4953678499437863e-08,3.094664264734455e-07,7.81988307767661e-07,1.1973709964185677e-06,1.7405169328016194e-06,3.06380336100274e-06,1.1905967552934596e-05,1.3662119222710647e-06,8.896300041519708e-07
S_02,S_02,5,404,q_noise,2158,2158,1877,1,2158,0,0,0,0,fraction,0.19931316774028487,0.2166476252938293,0.2257487905596774,0.23204195649576803,0.23828317780257607,0.24705119389533586,0.26672646121747284,0.23205252936253276,0.00930043657422098
S_02,S_02,5,505,snr_p_db,2158,2158,1877,1,2158,0,0,0,0,dB,5.955246273075861,6.059380518638494,6.108289842834832,6.142213158884413,6.177843605672754,6.233280164860576,6.330156565250013,6.143687412606018,0.053137884769790276
S_02,S_02,5,505,delta_p_db,2158,2158,1877,1,2158,0,0,0,0,dB,0.955246379830721,1.059380632267708,1.108289942400277,1.1422132637024012,1.1778437183699342,1.2332802753110843,1.3301566783857726,1.1436875245765254,0.05313788490620225
S_02,S_02,5,505,actual_total_snr_db,2158,2158,1877,1,2158,0,0,0,0,dB,4.999999858696412,4.999999875817184,4.999999883030436,4.999999887995527,4.999999892999329,4.999999900117031,4.9999999099997385,4.999999888029481,7.370526532449734e-09
S_02,S_02,5,505,q_clean,2158,2158,1877,1,2158,0,0,0,0,fraction,2.4953678499437863e-08,3.094664264734455e-07,7.81988307767661e-07,1.1973709964185677e-06,1.7405169328016194e-06,3.06380336100274e-06,1.1905967552934596e-05,1.3662119222710647e-06,8.896300041519708e-07
S_02,S_02,5,505,q_noise,2158,2158,1877,1,2158,0,0,0,0,fraction,0.19744665208884132,0.21645915249941367,0.2252342272382211,0.23126222342930985,0.23754351804331292,0.2472135694628441,0.2638204725568361,0.23146591652760987,0.009397346490254534
S_02,S_02,5,8128,snr_p_db,2158,2158,1877,1,2158,0,0,0,0,dB,5.934999683158983,6.059183413452294,6.1091434181242725,6.142666316666874,6.1793377774966824,6.230897667115764,6.322073444246957,6.143862142541338,0.05182890314338518
S_02,S_02,5,8128,delta_p_db,2158,2158,1877,1,2158,0,0,0,0,dB,0.9349997971787101,1.0591835344653315,1.1091435425920173,1.1426664334687575,1.1793378912255854,1.2308977706771018,1.322073568276342,1.1438622545944117,0.051828903131474244
S_02,S_02,5,8128,actual_total_snr_db,2158,2158,1877,1,2158,0,0,0,0,dB,4.9999998593553405,4.999999876184746,4.999999883024515,4.999999887928998,4.999999892551602,4.999999900129994,4.999999913469316,4.999999887946915,7.269694985177819e-09
S_02,S_02,5,8128,q_clean,2158,2158,1877,1,2158,0,0,0,0,fraction,2.4953678499437863e-08,3.094664264734455e-07,7.81988307767661e-07,1.1973709964185677e-06,1.7405169328016194e-06,3.06380336100274e-06,1.1905967552934596e-05,1.3662119222710647e-06,8.896300041519708e-07
S_02,S_02,5,8128,q_noise,2158,2158,1877,1,2158,0,0,0,0,fraction,0.19369852165012097,0.21642358405522136,0.2253864488575494,0.23134235299512484,0.23780541556429768,0.24680051612559745,0.2624489641933954,0.23149961587354137,0.009169662967885293
S_02,S_02,10,101,snr_p_db,2158,2158,1877,1,2158,0,0,0,0,dB,10.926075789049367,11.059899341968544,11.11011698244373,11.144265992194548,11.181098696319241,11.230465993277454,11.30259781518089,11.145248780286991,0.05172415783525287
S_02,S_02,10,101,delta_p_db,2158,2158,1877,1,2158,0,0,0,0,dB,0.9260757161753365,1.0598992732144354,1.1101169192888394,1.144265928527573,1.181098637056444,1.2304659370000954,1.3025977633929287,1.145248721914068,0.05172415784939935
S_02,S_02,10,101,actual_total_snr_db,2158,2158,1877,1,2158,0,0,0,0,dB,10.00000002909983,10.000000043345635,10.000000052332563,10.000000058685469,10.000000064522245,10.000000072533028,10.000000089404157,10.000000058372928,8.8892249236089e-09
S_02,S_02,10,101,q_clean,2158,2158,1877,1,2158,0,0,0,0,fraction,2.4953678499437863e-08,3.094664264734455e-07,7.81988307767661e-07,1.1973709964185677e-06,1.7405169328016194e-06,3.06380336100274e-06,1.1905967552934596e-05,1.3662119222710647e-06,8.896300041519708e-07
S_02,S_02,10,101,q_noise,2158,2158,1877,1,2158,0,0,0,0,fraction,0.1920361273910162,0.2165534679688166,0.22555963617329744,0.23162536152813762,0.23811515591855636,0.24672649597252647,0.25913443599258984,0.23174513341594272,0.009149390013314558
S_02,S_02,10,202,snr_p_db,2158,2158,1877,1,2158,0,0,0,0,dB,10.975586718048365,11.05948463399504,11.108679574519579,11.142914068741899,11.17922613684826,11.228053936843448,11.350140503911996,11.143712338680935,0.051919195210568043
S_02,S_02,10,202,delta_p_db,2158,2158,1877,1,2158,0,0,0,0,dB,0.9755866564477518,1.059484574866331,1.108679512845146,1.1429140128967066,1.1792260783638195,1.2280538768244516,1.3501404602749403,1.143712280081265,0.051919195547785124
S_02,S_02,10,202,actual_total_snr_db,2158,2158,1877,1,2158,0,0,0,0,dB,10.000000027866891,10.000000043370981,10.000000052306481,10.000000058745483,10.0000000644712,10.00000007395663,10.000000088432078,10.000000058599674,9.138288809870483e-09
S_02,S_02,10,202,q_clean,2158,2158,1877,1,2158,0,0,0,0,fraction,2.4953678499437863e-08,3.094664264734455e-07,7.81988307767661e-07,1.1973709964185677e-06,1.7405169328016194e-06,3.06380336100274e-06,1.1905967552934596e-05,1.3662119222710647e-06,8.896300041519708e-07
S_02,S_02,10,202,q_noise,2158,2158,1877,1,2158,0,0,0,0,fraction,0.20119467121222445,0.2164781867823138,0.22530431976253174,0.23138584702299198,0.23778579998397972,0.2463075936057193,0.2671993152404505,0.23147289813857858,0.00918297186207241
S_02,S_02,10,303,snr_p_db,2158,2158,1877,1,2158,0,0,0,0,dB,10.992402347729096,11.061471626106712,11.107256063870311,11.142076969007455,11.178697638669503,11.233025027516556,11.320812629302717,11.14412004334652,0.051945242059938015
S_02,S_02,10,303,delta_p_db,2158,2158,1877,1,2158,0,0,0,0,dB,0.9924022985733271,1.0614715704900868,1.107256007247984,1.1420769027844735,1.1786975882474389,1.2330249595698717,1.3208125683876923,1.1441199847783101,0.05194524210930782
S_02,S_02,10,303,actual_total_snr_db,2158,2158,1877,1,2158,0,0,0,0,dB,10.000000028860999,10.000000043366795,10.000000052370684,10.000000058831418,10.000000064617657,10.000000073348422,10.000000090463752,10.000000058568215,9.046167366771909e-09
S_02,S_02,10,303,q_clean,2158,2158,1877,1,2158,0,0,0,0,fraction,2.4953678499437863e-08,3.094664264734455e-07,7.81988307767661e-07,1.1973709964185677e-06,1.7405169328016194e-06,3.06380336100274e-06,1.1905967552934596e-05,1.3662119222710647e-06,8.896300041519708e-07
S_02,S_02,10,303,q_noise,2158,2158,1877,1,2158,0,0,0,0,fraction,0.20428133799948867,0.21683677581608649,0.22505123564052507,0.2312382668178814,0.23769339668125505,0.24717008969250226,0.26223476406283674,0.23154500789076524,0.00918149748482841
S_02,S_02,10,404,snr_p_db,2158,2158,1877,1,2158,0,0,0,0,dB,10.965366732923446,11.060422591478963,11.111173312434262,11.146616481967818,11.182055891964938,11.232344336841246,11.347335142786063,11.146997469065925,0.05261530639418017
S_02,S_02,10,404,delta_p_db,2158,2158,1877,1,2158,0,0,0,0,dB,0.9653666620742856,1.0604225357750918,1.1111732410929347,1.146616438714858,1.182055841141606,1.2323442668680982,1.3473350741960874,1.1469974110013177,0.05261530634570454
S_02,S_02,10,404,actual_total_snr_db,2158,2158,1877,1,2158,0,0,0,0,dB,10.000000029379654,10.00000004310182,10.000000052057768,10.00000005808468,10.000000063826825,10.00000007300554,10.000000090228225,10.000000058064613,9.037842244515346e-09
S_02,S_02,10,404,q_clean,2158,2158,1877,1,2158,0,0,0,0,fraction,2.4953678499437863e-08,3.094664264734455e-07,7.81988307767661e-07,1.1973709964185677e-06,1.7405169328016194e-06,3.06380336100274e-06,1.1905967552934596e-05,1.3662119222710647e-06,8.896300041519708e-07
S_02,S_02,10,404,q_noise,2158,2158,1877,1,2158,0,0,0,0,fraction,0.19931316786573697,0.21664762484243827,0.2257487911152975,0.23204195756065382,0.2382831769668837,0.2470511936097392,0.2667264611766051,0.23205252936774445,0.009300436585625061
S_02,S_02,10,505,snr_p_db,2158,2158,1877,1,2158,0,0,0,0,dB,10.955246446019235,11.059380679684326,11.108290010269823,11.142213322455525,11.177843770423227,11.233280337489287,11.330156729944692,11.143687583106178,0.05313788500766239
S_02,S_02,10,505,delta_p_db,2158,2158,1877,1,2158,0,0,0,0,dB,0.9552463850192263,1.0593806304667046,1.1082899402531925,1.1422132660450837,1.1778437136108142,1.2332802754628984,1.330156677606179,1.143687524572624,0.05313788503169676
S_02,S_02,10,505,actual_total_snr_db,2158,2158,1877,1,2158,0,0,0,0,dB,10.000000023807932,10.000000044490012,10.000000052582003,10.000000058701522,10.000000064314943,10.000000073170469,10.000000089652431,10.000000058533562,8.917775280679662e-09
S_02,S_02,10,505,q_clean,2158,2158,1877,1,2158,0,0,0,0,fraction,2.4953678499437863e-08,3.094664264734455e-07,7.81988307767661e-07,1.1973709964185677e-06,1.7405169328016194e-06,3.06380336100274e-06,1.1905967552934596e-05,1.3662119222710647e-06,8.896300041519708e-07
S_02,S_02,10,505,q_noise,2158,2158,1877,1,2158,0,0,0,0,fraction,0.19744665304764977,0.2164591521744698,0.22523422685518563,0.23126222384398432,0.23754351720779202,0.24721356948915865,0.26382047242468587,0.2314659165266491,0.009397346512209468
S_02,S_02,10,8128,snr_p_db,2158,2158,1877,1,2158,0,0,0,0,dB,10.934999866352433,11.059183588638524,11.109143599611112,11.142666490969173,11.179337953293329,11.230897823365913,11.322073641310466,11.143862312985304,0.05182890308382307
S_02,S_02,10,8128,delta_p_db,2158,2158,1877,1,2158,0,0,0,0,dB,0.934999800595333,1.0591835304196195,1.1091435441933073,1.1426664342116895,1.1793378924820395,1.2308977644836492,1.3220735703462025,1.1438622545431054,0.05182890300770099
S_02,S_02,10,8128,actual_total_snr_db,2158,2158,1877,1,2158,0,0,0,0,dB,10.000000024095977,10.000000043600835,10.000000052331332,10.000000058643138,10.000000064417918,10.000000073213522,10.000000084767501,10.000000058442202,8.937569378007442e-09
S_02,S_02,10,8128,q_clean,2158,2158,1877,1,2158,0,0,0,0,fraction,2.4953678499437863e-08,3.094664264734455e-07,7.81988307767661e-07,1.1973709964185677e-06,1.7405169328016194e-06,3.06380336100274e-06,1.1905967552934596e-05,1.3662119222710647e-06,8.896300041519708e-07
S_02,S_02,10,8128,q_noise,2158,2158,1877,1,2158,0,0,0,0,fraction,0.1936985222844436,0.21642358332526845,0.22538644914316922,0.23134235312662008,0.23780541578480838,0.24680051505146453,0.2624489645449144,0.2314996158647205,0.009169662946905199
S_03,S_03,0,101,snr_p_db,2158,2158,1877,1,2158,0,0,0,0,dB,3.1990175637597607,3.366124957461852,3.4619196698901558,3.5284623911188056,3.5957709220272807,3.6875889407421227,3.8903980039012436,3.528746675374673,0.09710788376564872
S_03,S_03,0,101,delta_p_db,2158,2158,1877,1,2158,0,0,0,0,dB,3.199017563232837,3.366124953307016,3.461919668357996,3.5284623875633514,3.5957709166066882,3.687588942146167,3.890398001174704,3.528746675325887,0.09710788369634069
S_03,S_03,0,101,actual_total_snr_db,2158,2158,1877,1,2158,0,0,0,0,dB,-1.7293454213765176e-08,-8.954634544583345e-09,-3.550883243237882e-09,5.193433787465003e-11,3.6823856838565657e-09,9.021491156372226e-09,1.6645307477633584e-08,4.874646267772554e-11,5.4549238227976275e-09
S_03,S_03,0,101,q_clean,2158,2158,1877,1,2158,0,0,0,0,fraction,2.4953678499437863e-08,3.094664264734455e-07,7.81988307767661e-07,1.1973709964185677e-06,1.7405169328016194e-06,3.06380336100274e-06,1.1905967552934596e-05,1.3662119222710647e-06,8.896300041519708e-07
S_03,S_03,0,101,q_noise,2158,2158,1877,1,2158,0,0,0,0,fraction,0.5212621369525144,0.5393331557518256,0.5493830454180746,0.5562349745580045,0.5630596048537337,0.5722001466950216,0.5917185571122506,0.5561530451942739,0.009924134703206218
S_03,S_03,0,202,snr_p_db,2158,2158,1877,1,2158,0,0,0,0,dB,3.223201372181675,3.3640821040764255,3.4550422157053116,3.526524119350679,3.5938569123027553,3.6884983898619246,3.853092201281676,3.5251896991538327,0.09990189302986037
S_03,S_03,0,202,delta_p_db,2158,2158,1877,1,2158,0,0,0,0,dB,3.2232013703780127,3.36408210650749,3.455042212177063,3.5265241187325085,3.593856916952965,3.688498391004868,3.85309220365626,3.5251896991440677,0.09990189302484564
S_03,S_03,0,202,actual_total_snr_db,2158,2158,1877,1,2158,0,0,0,0,dB,-1.8934639760791326e-08,-8.87562087874153e-09,-3.854391692468828e-09,-1.5988549395459347e-12,3.751057853509718e-09,8.912055707682093e-09,2.133120219841041e-08,9.724802748334431e-12,5.42874364281271e-09
S_03,S_03,0,202,q_clean,2158,2158,1877,1,2158,0,0,0,0,fraction,2.4953678499437863e-08,3.094664264734455e-07,7.81988307767661e-07,1.1973709964185677e-06,1.7405169328016194e-06,3.06380336100274e-06,1.1905967552934596e-05,1.3662119222710647e-06,8.896300041519708e-07
S_03,S_03,0,202,q_noise,2158,2158,1877,1,2158,0,0,0,0,fraction,0.5239206316720714,0.5391162367118024,0.5486686001111403,0.5560364834366667,0.5628674393711941,0.5722895371676462,0.5881958931089457,0.5557829259915881,0.010214339473290385
S_03,S_03,0,303,snr_p_db,2158,2158,1877,1,2158,0,0,0,0,dB,3.1896000602152337,3.360223447416576,3.455793507188264,3.523766685589719,3.5928700541772938,3.698702243965407,3.8577440111740273,3.5249318032388683,0.1010750458561758
S_03,S_03,0,303,delta_p_db,2158,2158,1877,1,2158,0,0,0,0,dB,3.1896000567885636,3.3602234444079215,3.455793500931117,3.523766689000326,3.5928700575250034,3.698702244914643,3.85774400697378,3.524931803081448,0.10107504596639993
S_03,S_03,0,303,actual_total_snr_db,2158,2158,1877,1,2158,0,0,0,0,dB,-1.8015300095296794e-08,-8.488158706569512e-09,-3.5743349639980954e-09,2.4670823523491957e-10,3.902986440321979e-09,8.728378326845785e-09,1.7424864012572674e-08,1.5738113591688922e-10,5.437578671736003e-09
S_03,S_03,0,303,q_clean,2158,2158,1877,1,2158,0,0,0,0,fraction,2.4953678499437863e-08,3.094664264734455e-07,7.81988307767661e-07,1.1973709964185677e-06,1.7405169328016194e-06,3.06380336100274e-06,1.1905967552934596e-05,1.3662119222710647e-06,8.896300041519708e-07
S_03,S_03,0,303,q_noise,2158,2158,1877,1,2158,0,0,0,0,fraction,0.5202230051646839,0.5387068880140724,0.5487470744182998,0.5557546377670872,0.5627674017960087,0.573293552670435,0.5886370056855699,0.5557537771606192,0.010334435377276635
S_03,S_03,0,404,snr_p_db,2158,2158,1877,1,2158,0,0,0,0,dB,3.216035377913664,3.3625787209528553,3.4588787286818965,3.5259964243650255,3.5970761994235145,3.6976553500420026,3.862500363422956,3.527582926041375,0.10109851832910859
S_03,S_03,0,404,delta_p_db,2158,2158,1877,1,2158,0,0,0,0,dB,3.2160353818419396,3.3625787131021134,3.4588787334675706,3.52599641961995,3.5970762051415637,3.697655348008106,3.8625003534834654,3.5275829260041403,0.10109851829570118
S_03,S_03,0,404,actual_total_snr_db,2158,2158,1877,1,2158,0,0,0,0,dB,-1.7161099304128254e-08,-9.119771935021861e-09,-3.593009044862376e-09,-1.2291703619849222e-10,3.683464284126991e-09,9.58056540414298e-09,1.921399039699675e-08,3.7195695429005484e-11,5.553426600892597e-09
S_03,S_03,0,404,q_clean,2158,2158,1877,1,2158,0,0,0,0,fraction,2.4953678499437863e-08,3.094664264734455e-07,7.81988307767661e-07,1.1973709964185677e-06,1.7405169328016194e-06,3.06380336100274e-06,1.1905967552934596e-05,1.3662119222710647e-06,8.896300041519708e-07
S_03,S_03,0,404,q_noise,2158,2158,1877,1,2158,0,0,0,0,fraction,0.5231341968996266,0.5389574045670765,0.5490672359655087,0.5559832272163903,0.5631904451324153,0.5731911411612136,0.58908743204286,0.5560248531740684,0.010327111713271057
S_03,S_03,0,505,snr_p_db,2158,2158,1877,1,2158,0,0,0,0,dB,3.217608453278608,3.3565576650290105,3.456835879769777,3.5244165692846163,3.5930689717319892,3.692385630164631,3.828168806267807,3.5254717783647314,0.10093168856538837
S_03,S_03,0,505,delta_p_db,2158,2158,1877,1,2158,0,0,0,0,dB,3.217608454690552,3.3565576664690413,3.456835887193834,3.52441656743986,3.59306896698105,3.6923856293200337,3.828168806048589,3.5254717784077774,0.10093168877641788
S_03,S_03,0,505,actual_total_snr_db,2158,2158,1877,1,2158,0,0,0,0,dB,-2.0549209870234786e-08,-8.676899410055904e-09,-3.926245781261941e-09,-1.4384246005960388e-10,3.6948182757085453e-09,8.988628612169663e-09,2.348896011123151e-08,-4.30856770892864e-11,5.576525324827502e-09
S_03,S_03,0,505,q_clean,2158,2158,1877,1,2158,0,0,0,0,fraction,2.4953678499437863e-08,3.094664264734455e-07,7.81988307767661e-07,1.1973709964185677e-06,1.7405169328016194e-06,3.06380336100274e-06,1.1905967552934596e-05,1.3662119222710647e-06,8.896300041519708e-07
S_03,S_03,0,505,q_noise,2158,2158,1877,1,2158,0,0,0,0,fraction,0.523306921072865,0.538317001676383,0.5488554652890433,0.5558212491452622,0.5627876036807398,0.5726720633003128,0.5858260404814638,0.5558093328152189,0.010320459914120518
S_03,S_03,0,8128,snr_p_db,2158,2158,1877,1,2158,0,0,0,0,dB,3.221067081473323,3.366172316120064,3.457237529578704,3.5261029679696962,3.5896541972386986,3.685374882061496,3.895006817433954,3.5248315478225005,0.0968406913066472
S_03,S_03,0,8128,delta_p_db,2158,2158,1877,1,2158,0,0,0,0,dB,3.2210670813163627,3.366172321737828,3.4572375338258876,3.5261029674980895,3.5896541999952274,3.6853748825394796,3.8950068217482334,3.5248315480797325,0.09684069125328344
S_03,S_03,0,8128,actual_total_snr_db,2158,2158,1877,1,2158,0,0,0,0,dB,-1.8825593128235688e-08,-9.51961088868757e-09,-3.956593889907515e-09,-2.9699887696030324e-10,3.4659356338745474e-09,9.109658411045828e-09,1.758461932167531e-08,-2.5727123187786603e-10,5.576685521589271e-09
S_03,S_03,0,8128,q_clean,2158,2158,1877,1,2158,0,0,0,0,fraction,2.4953678499437863e-08,3.094664264734455e-07,7.81988307767661e-07,1.1973709964185677e-06,1.7405169328016194e-06,3.06380336100274e-06,1.1905967552934596e-05,1.3662119222710647e-06,8.896300041519708e-07
S_03,S_03,0,8128,q_noise,2158,2158,1877,1,2158,0,0,0,0,fraction,0.5236868071327957,0.539338247965603,0.5488968633357066,0.5559934377952256,0.5624437090907257,0.5719820103646976,0.5921514621116537,0.5557534029831849,0.009898647871719062
S_03,S_03,5,101,snr_p_db,2158,2158,1877,1,2158,0,0,0,0,dB,8.199017425027291,8.366124847002874,8.461919559766331,8.528462283289278,8.59577081182818,8.687588838870102,8.890397902106816,8.52874656371795,0.09710788380007829
S_03,S_03,5,101,delta_p_db,2158,2158,1877,1,2158,0,0,0,0,dB,3.199017546245556,3.3661249654846315,3.4619196650821897,3.5284623900659264,3.5957709247729164,3.6875889461019695,3.8903980134005716,3.528746675555315,0.09710788363588814
S_03,S_03,5,101,actual_total_snr_db,2158,2158,1877,1,2158,0,0,0,0,dB,4.999999863990735,4.999999876049809,4.999999883367337,4.999999888249178,4.999999893245679,4.999999899879865,4.999999913058282,4.999999888162601,7.291570760385821e-09
S_03,S_03,5,101,q_clean,2158,2158,1877,1,2158,0,0,0,0,fraction,2.4953678499437863e-08,3.094664264734455e-07,7.81988307767661e-07,1.1973709964185677e-06,1.7405169328016194e-06,3.06380336100274e-06,1.1905967552934596e-05,1.3662119222710647e-06,8.896300041519708e-07
S_03,S_03,5,101,q_noise,2158,2158,1877,1,2158,0,0,0,0,fraction,0.5212621350799476,0.5393331570435249,0.5493830450781827,0.5562349745936305,0.5630596056753321,0.5722001470846928,0.5917185582616078,0.5561530452178601,0.009924134696422855
S_03,S_03,5,202,snr_p_db,2158,2158,1877,1,2158,0,0,0,0,dB,8.223201248723372,8.364081993649586,8.455042113143366,8.526524004050836,8.59385680141649,8.688498293763105,8.85309208709027,8.525189587054141,0.09990189286522559
S_03,S_03,5,202,delta_p_db,2158,2158,1877,1,2158,0,0,0,0,dB,3.2232013654058833,3.364082098873037,3.4550422225025477,3.526524113249151,3.593856905455881,3.6884984094931657,3.8530922001492507,3.5251896991549714,0.09990189271332797
S_03,S_03,5,202,actual_total_snr_db,2158,2158,1877,1,2158,0,0,0,0,dB,4.999999865429531,4.99999987635719,4.999999883279939,4.999999887925665,4.999999892444824,4.999999899575484,4.999999910361553,4.999999887899135,6.979054462727189e-09
S_03,S_03,5,202,q_clean,2158,2158,1877,1,2158,0,0,0,0,fraction,2.4953678499437863e-08,3.094664264734455e-07,7.81988307767661e-07,1.1973709964185677e-06,1.7405169328016194e-06,3.06380336100274e-06,1.1905967552934596e-05,1.3662119222710647e-06,8.896300041519708e-07
S_03,S_03,5,202,q_noise,2158,2158,1877,1,2158,0,0,0,0,fraction,0.52392063112702,0.5391162359016276,0.5486686011841979,0.5560364828760986,0.5628674382139809,0.5722895389884488,0.5881958927764062,0.5557829259934334,0.010214339441684525
S_03,S_03,5,303,snr_p_db,2158,2158,1877,1,2158,0,0,0,0,dB,8.189599939827119,8.360223325553187,8.455793409282567,8.52376656513732,8.592869952614414,8.698702129775624,8.857743906596813,8.524931691300644,0.10107504605200729
